id,training_id,device_id,movement_id,repetition,timestamp,raw
1,1,1,1,1,2025-12-08T23:05:04.142018Z,"3248,3233,3233,2208,16,0,1345,2289,3121,3217,3232,3217,80,0,1057,2049,2945,3217,3232,3233,689,32,705,1745,2705,3248,3232,3216,2128,17,17,1505,2544,3248,3296,3265,3265,32,17,1168,2224,3169,3264,3248,3265,721,16,816,1873,2864"
2,1,1,1,1,2025-12-08T23:05:04.245016Z,"3232,3232,65,1,929,2048,3008,3217,3233,3232,1153,32,241,1680,2753,3200,3232,3233,3232,33,1,1361,2433,3232,3217,3216,3232,49,16,993,2097,3153,3264,3265,3280,1216,1,560,1825,2881,3265,3264,3265,3264,33,17,1473,2560,3249,3265"
3,1,1,1,1,2025-12-08T23:05:04.348016Z,"2336,17,0,1569,2657,3217,3216,3217,3233,48,1,1233,2321,3201,3216,3216,3233,657,1,848,1953,2993,3232,3216,3233,2161,0,16,1585,2689,3264,3265,3265,3248,49,0,1296,2385,3249,3264,3264,3265,688,17,913,2000,3057,3265,3264,3264"
4,1,1,1,1,2025-12-08T23:05:04.451018Z,"0,784,2096,3104,3232,3249,3233,1136,32,512,1792,2800,3217,3232,3216,3233,48,1,1408,2480,3200,3233,3232,3233,161,49,1056,2145,3136,3281,3265,3280,1201,17,753,1840,2864,3248,3264,3264,3264,32,0,1489,2528,3249,3265,3232,3264,64"
5,1,1,1,1,2025-12-08T23:05:04.555016Z,"1697,2641,3217,3232,3233,3264,49,33,1233,2256,3201,3233,3233,3232,608,16,881,1937,2929,3232,3217,3216,2049,17,1,1584,2672,3233,3232,3264,3249,49,17,1328,2368,3249,3264,3265,3249,672,16,944,2001,2993,3265,3264,3280,65,16,1057"
6,1,1,1,1,2025-12-08T23:05:04.658016Z,"3200,3217,3233,3232,49,1,1264,2289,3201,3217,3233,3232,576,16,881,1952,2912,3217,3249,3248,1905,32,97,1584,2592,3217,3233,3217,3248,49,17,1297,2321,3248,3264,3264,3265,593,1,929,1985,2960,3280,3265,3265,2016,17,224,1536,2544"
7,1,1,1,1,2025-12-08T23:05:04.761016Z,"3216,3233,1024,17,657,1729,2737,3216,3232,3233,3232,33,0,1393,2416,3216,3232,3216,3233,49,32,1041,2064,3041,3217,3233,3232,976,17,737,1777,2801,3264,3297,3264,3265,33,17,1457,2481,3232,3249,3248,3264,64,17,1089,2145,3104,3249"
8,1,1,1,1,2025-12-08T23:05:04.864016Z,"3216,33,1,1216,2256,3200,3232,3232,3233,448,33,864,1921,2928,3217,3232,3232,1664,32,16,1584,2593,3232,3232,3233,3233,32,1,1233,2305,3249,3265,3265,3264,497,1,945,2001,3009,3265,3264,3249,1760,33,272,1649,2688,3265,3265,3264"
9,1,1,1,1,2025-12-08T23:05:04.967016Z,"17,721,1777,2768,3216,3217,3233,3232,33,1,1440,2448,3184,3248,3216,3217,48,17,1073,2112,3072,3216,3217,3248,913,1,721,1776,2769,3248,3265,3265,3264,33,1,1504,2528,3280,3265,3264,3265,17,1,1120,2176,3137,3264,3264,3249,976"
10,1,1,1,1,2025-12-08T23:05:05.071016Z,"1233,2304,3217,3217,3248,3232,416,16,897,1937,2897,3216,3233,3216,1520,16,144,1585,2609,3217,3233,3232,3216,49,1,1249,2304,3201,3217,3297,3264,448,17,977,2001,2977,3249,3296,3297,1681,33,385,1680,2672,3264,3217,3233,881,16,801"
11,1,1,1,1,2025-12-08T23:05:05.174016Z,"3217,3217,3265,3232,384,1,912,1921,2881,3217,3232,3232,1392,17,193,1616,2576,3201,3217,3232,3232,33,0,1265,2272,3200,3233,3233,3232,385,0,993,2016,2977,3249,3264,3265,1617,33,369,1649,2640,3265,3265,3232,3264,32,33,1329,2336"
12,1,1,1,1,2025-12-08T23:05:05.277016Z,"3217,3217,2992,33,0,1425,2417,3233,3217,3216,3216,49,32,1104,2097,3025,3216,3233,3232,848,17,737,1760,2736,3216,3232,3233,2753,33,16,1505,2497,3233,3233,3265,3265,48,17,1152,2161,3088,3281,3265,3264,48,16,721,1776,2753,3265"
13,1,1,1,1,2025-12-08T23:05:05.379016Z,"3233,1616,17,17,1393,2401,3216,3216,3233,3232,49,0,1073,2081,3025,3201,3232,3233,769,16,721,1760,2721,3217,3217,3217,2641,17,1,1440,2449,3249,3264,3265,3265,64,32,1152,2177,3120,3264,3264,3264,816,17,768,1793,2881,3264,3264"
14,1,1,1,1,2025-12-08T23:05:05.482016Z,"64,0,913,1920,2977,3217,3216,3233,1264,16,225,1601,2592,3217,3232,3232,3248,32,1,1264,2289,3200,3217,3232,3217,241,17,929,1936,2960,3249,3264,3264,1313,16,416,1696,2688,3281,3264,3265,3265,32,0,1344,2352,3249,3296,3265,3265"
15,1,1,1,1,2025-12-08T23:05:05.585016Z,"0,1425,2416,3216,3233,3233,3232,49,16,1137,2145,3088,3217,3217,3216,720,17,753,1792,2785,3216,3233,3249,2448,17,1,1441,2433,3217,3265,3280,3264,65,33,1185,2208,3169,3264,3264,3264,737,16,833,1872,2913,3217,3232,3265,2640,32"
16,1,1,1,1,2025-12-08T23:05:05.688016Z,"2049,2960,3216,3232,3232,1200,16,369,1632,2608,3217,3233,3232,3232,32,0,1297,2304,3201,3216,3232,3217,176,0,961,1969,2929,3216,3232,3264,1248,17,561,1697,2688,3249,3264,3264,3265,33,0,1376,2385,3200,3216,3232,3232,208,32,1025"
17,1,1,1,1,2025-12-08T23:05:05.791016Z,"3217,3216,3232,3233,48,17,1136,2128,3056,3217,3232,3232,656,17,784,1808,2769,3233,3233,3233,2336,17,0,1488,2465,3216,3232,3217,3233,49,17,1217,2224,3153,3265,3265,3264,704,16,865,1872,2848,3264,3264,3265,2449,32,0,1552,2528"
18,1,1,1,1,2025-12-08T23:05:05.894016Z,"3217,3185,1137,17,496,1648,2608,3216,3232,3233,3233,32,1,1328,2304,3200,3216,3232,3233,128,17,977,1985,2929,3217,3232,3232,1105,17,721,1681,2641,3264,3264,3265,3264,33,1,1393,2384,3248,3264,3264,3233,49,17,977,2001,2961,3264"
19,1,1,1,1,2025-12-08T23:05:05.997016Z,"3232,32,16,1153,2144,3056,3217,3232,3233,608,17,816,1824,2769,3216,3233,3233,2113,32,0,1488,2465,3200,3216,3232,3216,32,0,1152,2176,3104,3265,3264,3265,657,17,864,1873,2833,3264,3264,3264,1601,17,1,1473,2481,3248,3265,3264"
20,1,1,1,1,2025-12-08T23:05:06.100016Z,"16,513,1536,2497,3217,3233,3233,2849,33,1,1313,2304,3200,3217,3233,3233,64,17,993,2000,2929,3232,3217,3232,1057,17,512,1649,2624,3216,3217,3216,2192,33,17,1344,2337,3248,3265,3265,3264,96,17,1056,2064,3008,3264,3264,3265,1121"
21,1,1,1,1,2025-12-08T23:05:06.204016Z,"1169,2145,3057,3232,3233,3233,528,17,832,1825,2784,3217,3216,3233,1952,33,1,1505,2464,3217,3233,3232,3232,49,0,1169,2177,3088,3217,3264,3265,561,17,896,1920,2880,3265,3264,3264,2049,32,176,2048,3009,3232,3265,3280,1089,16,737"
22,1,1,1,1,2025-12-08T23:05:06.307016Z,"3185,3233,3233,3233,497,16,849,1841,2801,3217,3233,3216,1872,16,17,1520,2497,3216,3233,3233,3233,33,1,1201,2177,3105,3217,3232,3264,544,16,913,1921,2881,3264,3264,3280,1921,32,224,1585,2512,3216,3217,3233,3232,32,0,1249,2241"
23,1,1,1,1,2025-12-08T23:05:06.410016Z,"3248,3233,3216,32,1,1361,2337,3201,3217,3233,3233,65,1,1041,2032,2945,3217,3232,3232,992,16,673,1696,2657,3217,3233,3217,3217,32,33,1441,2416,3248,3264,3265,3264,64,17,1104,2097,3089,3216,3233,3232,1040,17,753,1760,2704,3248"
24,1,1,1,1,2025-12-08T23:05:06.513016Z,"3185,465,16,881,1856,2784,3217,3216,3232,1696,17,208,1536,2497,3216,3232,3232,3233,32,1,1216,2192,3088,3216,3233,3233,416,16,880,1889,2833,3265,3264,3265,1936,32,368,1616,2576,3248,3232,3264,3280,48,17,1281,2240,3136,3265,3264"
25,1,1,1,1,2025-12-08T23:05:06.615016Z,"32,17,800,1761,2704,3217,3232,3233,1696,17,193,1552,2480,3217,3217,3233,3232,32,1,1216,2176,3073,3233,3232,3233,417,17,881,1872,2817,3232,3265,3265,1793,33,321,1601,2545,3265,3265,3264,3232,33,1,1216,2177,3057,3232,3232,3233"
26,1,1,1,1,2025-12-08T23:05:06.718016Z,"225,1360,2320,3200,3232,3233,3233,64,16,1056,2033,2945,3217,3232,3233,913,16,720,1712,2641,3217,3232,3233,3168,32,0,1377,2336,3200,3216,3233,3233,49,1,1056,2033,2945,3233,3217,3232,849,17,721,1713,2641,3265,3265,3265,3264,32"
27,1,1,1,1,2025-12-08T23:05:06.821016Z,"1968,2992,3216,3233,3232,1408,17,304,1553,2497,3216,3233,3233,3233,33,0,1248,2208,3104,3217,3233,3232,352,16,913,1889,2961,3217,3232,3233,1648,33,449,1633,2577,3248,3265,3265,3265,49,0,1264,2193,3089,3264,3281,3264,401,17,977"
28,1,1,1,1,2025-12-08T23:05:06.924016Z,"3200,3217,3232,3233,65,16,1073,2032,2944,3217,3232,3232,833,16,753,1728,2673,3217,3233,3233,2817,32,16,1409,2368,3216,3248,3233,3232,49,16,1153,2128,3073,3264,3265,3264,864,17,800,1793,2736,3248,3264,3265,2929,33,1,1473,2433"
29,1,1,1,1,2025-12-08T23:05:07.027016Z,"3216,3232,1185,16,337,1569,2513,3216,3232,3233,3232,1,1,1264,2224,3120,3217,3233,3232,273,16,929,1905,2832,3217,3233,3232,1297,16,337,1648,2560,3248,3264,3264,3280,32,16,1329,2336,3169,3217,3233,3281,305,1,1008,1985,2912,3264"
30,1,1,1,1,2025-12-08T23:05:07.130016Z,"3217,33,1,1105,2065,2977,3216,3232,3232,736,17,768,1761,2688,3217,3232,3232,2657,16,1,1440,2385,3216,3233,3232,3233,33,1,1104,2112,3024,3265,3264,3264,800,17,848,1840,2785,3265,3264,3265,2705,33,16,1505,2465,3249,3264,3264"
31,1,1,1,1,2025-12-08T23:05:07.233016Z,"16,465,1600,2544,3216,3233,3233,3232,32,1,1280,2240,3121,3233,3233,3233,209,1,960,1937,2848,3217,3216,3232,1233,17,561,1616,2560,3264,3265,3265,3265,32,16,1345,2320,3216,3264,3264,3264,257,16,1025,2000,2913,3265,3264,3264,1296"
32,1,1,1,1,2025-12-08T23:05:07.336016Z,"1104,2048,2944,3232,3216,3233,689,16,784,1760,2673,3216,3232,3232,2464,33,1,1441,2384,3201,3233,3233,3233,48,1,1121,2080,2977,3217,3265,3265,753,16,848,1824,2753,3264,3265,3232,2608,32,16,1505,2449,3248,3264,3265,3265,48,16"
33,1,1,1,1,2025-12-08T23:05:07.438016Z,"2416,3072,3217,3233,3232,657,17,784,1744,2672,3216,3232,3233,2353,33,1,1440,2368,3201,3217,3217,3233,48,1,1121,2081,3169,3232,3233,3249,705,16,848,1824,2753,3264,3264,3265,2529,32,0,1456,2385,3216,3232,3233,3233,49,0,1136"
34,1,1,1,1,2025-12-08T23:05:07.541016Z,"3216,3232,3233,3233,33,1,1312,2257,3136,3216,3216,3233,128,17,992,1953,2864,3216,3233,3233,1137,17,640,1648,2577,3216,3232,3233,3232,32,1,1328,2272,3169,3216,3233,3232,113,17,1056,2017,2944,3265,3264,3264,1201,32,721,1713,2641"
35,1,1,1,1,2025-12-08T23:05:07.645016Z,"3201,3232,592,1,833,1809,2736,3217,3233,3232,2144,32,1,1488,2417,3201,3232,3232,3232,48,1,1169,2129,3009,3233,3232,3232,577,17,849,1840,2768,3248,3264,3265,2352,33,192,2113,2912,3216,3264,3265,1169,16,736,1712,2657,3249,3264"
36,1,1,1,1,2025-12-08T23:05:07.748016Z,"16,16,848,1808,2721,3217,3233,3232,2113,16,128,1504,2432,3217,3232,3217,3233,48,1,1184,2128,3025,3217,3232,3233,576,16,864,1824,2768,3265,3264,3264,2305,32,273,1569,2480,3216,3233,3233,3265,48,17,1248,2192,3073,3264,3264,3265"
37,1,1,1,1,2025-12-08T23:05:07.852016Z,"0,1344,2256,3121,3216,3233,3232,64,0,1025,1968,2864,3216,3232,3232,1056,17,704,1665,2592,3216,3233,3232,3233,32,0,1313,2256,3121,3265,3264,3265,81,17,1088,2048,2945,3232,3232,3233,49,1,1265,2209,3072,3265,3265,3265,592,16"
38,1,1,1,1,2025-12-08T23:05:07.955016Z,"2593,3168,3217,3232,3233,48,1,1025,1968,2848,3217,3233,3232,1024,17,705,1649,2561,3217,3232,3233,3233,32,1,1344,2273,3136,3233,3264,3264,80,17,1104,2049,2928,3264,3232,3232,1040,17,769,1712,2624,3248,3264,3265,3264,33,16,1409"
39,1,1,1,1,2025-12-08T23:05:08.058016Z,"3200,3233,3232,1985,16,257,1489,2385,3216,3233,3233,3233,32,17,1184,2113,2960,3216,3232,3233,496,16,897,1824,2704,3216,3232,3233,1265,16,416,1552,2465,3249,3264,3264,3265,48,1,1264,2176,3025,3265,3265,3265,545,17,945,1873,2752"
40,1,1,1,1,2025-12-08T23:05:08.161016Z,"3233,3232,48,1,1056,1952,2816,3217,3233,3233,977,17,737,1681,2560,3216,3217,3233,3232,32,1,1361,2272,3105,3217,3232,3216,65,0,1120,2049,2913,3248,3265,3265,1041,48,800,1729,2625,3265,3264,3264,3264,32,16,1425,2337,3169,3264"
41,1,1,1,1,2025-12-08T23:05:08.264016Z,"1329,16,417,1520,2417,3216,3233,3233,3232,33,0,1217,2129,2976,3201,3232,3232,416,16,912,1824,2721,3200,3232,3232,1632,17,368,1584,2464,3249,3264,3265,3264,48,0,1457,2144,2992,3217,3233,3264,449,16,976,1921,2800,3265,3265,3248"
42,1,1,1,1,2025-12-08T23:05:08.367016Z,"0,1072,1984,2864,3232,3233,3232,865,16,753,1712,2593,3216,3232,3232,3025,16,0,1425,2288,3152,3233,3233,3232,49,16,1089,2017,2928,3264,3264,3265,928,17,833,1776,2673,3249,3264,3264,3040,33,16,1472,2384,3217,3249,3265,3264,49"
43,1,1,1,1,2025-12-08T23:05:08.469016Z,"1456,2048,2912,3217,3280,3232,832,0,768,1712,2593,3217,3233,3232,2881,33,0,1409,2320,3185,3201,3233,3233,49,17,1105,2032,2896,3216,3233,3233,880,17,833,1777,2641,3216,3233,3232,2944,33,96,1473,2416,3233,3265,3265,3265,49,17"
44,1,1,1,1,2025-12-08T23:05:08.572016Z,"2512,3217,3233,3216,3201,48,1,1264,2176,3024,3217,3233,3281,305,0,961,1873,2752,3217,3216,3232,1329,17,609,1584,2481,3216,3232,3217,3265,32,0,1344,2257,3104,3232,3232,3232,304,1,1056,1937,2817,3265,3264,3264,1408,17,704,1616"
45,1,1,1,1,2025-12-08T23:05:08.675016Z,"3185,3233,3233,785,17,816,1729,2608,3217,3233,3233,2672,32,0,1425,2320,3152,3216,3233,3232,48,16,1137,2064,2913,3248,3232,3216,753,16,864,1793,2672,3265,3249,3232,2672,1,177,1473,2385,3201,3265,3280,3265,48,16,1185,2097,2944"
46,1,1,1,1,2025-12-08T23:05:08.778016Z,"3168,3217,48,0,1280,2176,3008,3217,3233,3233,224,17,977,1888,2753,3216,3233,3233,1249,33,689,1585,2465,3216,3216,3233,3265,32,1,1313,2224,3072,3249,3281,3233,129,0,977,1920,2785,3249,3265,3280,1313,32,721,1696,2561,3265,3265"
47,1,1,1,1,2025-12-08T23:05:08.881016Z,"464,16,832,1761,2640,3216,3201,3217,2529,16,112,1440,2336,3153,3216,3217,3233,32,0,1137,2033,2897,3217,3217,3233,689,17,832,1745,2656,3249,3249,3265,2545,16,817,1441,2336,3200,3265,3265,3296,49,1,1248,2128,2961,3265,3265,3280"
48,1,1,1,1,2025-12-08T23:05:08.984016Z,"0,1233,2128,2992,3217,3248,3232,160,16,993,1889,2752,3217,3233,3232,1201,16,657,1584,2480,3216,3232,3233,3232,32,1,1297,2160,3008,3265,3280,3265,208,0,1041,1936,2817,3265,3264,3280,1233,0,752,1665,2544,3248,3264,3281,3264,32"
49,1,1,1,1,2025-12-08T23:05:09.087016Z,"1841,2641,3248,3265,3233,2320,16,208,1440,2321,3152,3232,3232,3233,48,16,1153,2049,2896,3233,3232,3233,625,16,864,1776,2641,3217,3217,3280,2480,32,368,1568,2400,3201,3248,3280,3264,65,48,1233,2129,2977,3265,3264,3264,689,33,928"
50,1,1,1,2,2025-12-08T23:05:15.047835Z,"17,657,1776,2817,3216,3232,3233,2176,16,1,1424,2496,3217,3217,3232,3233,48,1,1072,2160,3200,3217,3217,3232,609,16,688,1808,2912,3265,3264,3264,2112,33,0,1505,2593,3249,3265,3265,3265,49,17,1120,2224,3233,3264,3264,3265,49"
51,1,1,1,2,2025-12-08T23:05:15.150835Z,"1329,2336,3216,3232,3233,3233,64,16,912,2016,3056,3233,3233,3233,1105,16,1,1664,2737,3216,3217,3233,3217,32,0,1328,2384,3217,3264,3265,3264,128,17,977,2096,3168,3265,3264,3265,1104,16,0,1713,2816,3265,3265,3264,3264,17,1"
52,1,1,1,2,2025-12-08T23:05:15.254835Z,"2976,3216,3232,3232,1553,16,0,1489,2577,3216,3217,3233,3232,33,16,1137,2240,3201,3232,3233,3233,545,16,768,1889,2961,3217,3233,3265,2001,17,0,1600,2689,3264,3264,3265,3265,48,17,1201,2336,3248,3265,3265,3264,545,16,768,2481"
53,1,1,1,2,2025-12-08T23:05:15.357835Z,"3216,3201,3232,48,16,977,2096,3168,3232,3233,3232,1009,17,160,1744,2832,3216,3232,3233,3232,33,1,1393,2497,3217,3217,3233,3233,64,16,1040,2176,3233,3265,3265,3264,1072,16,336,1809,2912,3265,3264,3265,3264,32,16,1425,3153,3217"
54,1,1,1,2,2025-12-08T23:05:15.459835Z,"3217,1328,17,1,1553,2673,3201,3248,3233,3233,33,1,1200,2321,3217,3232,3232,3232,449,33,785,1937,3024,3216,3233,3232,1521,0,16,1616,2720,3265,3264,3265,3264,48,0,1233,2385,3249,3264,3249,3248,481,16,833,2000,3088,3265,3265"
55,1,1,1,2,2025-12-08T23:05:15.562835Z,"48,16,817,1921,2993,3216,3233,3233,928,16,225,1777,2816,3169,3216,3200,3232,33,0,1392,2512,3217,3233,3217,3200,49,17,1008,2144,3201,3232,3232,3232,960,17,400,1824,2928,3265,3264,3265,3264,32,1,1457,2576,3280,3233,3264,3281"
56,1,1,1,2,2025-12-08T23:05:15.666835Z,"688,1569,2673,3217,3232,3232,3248,32,0,1200,2320,3216,3216,3232,3216,368,16,801,1968,3008,3216,3201,3233,1392,17,0,1553,2657,3264,3265,3281,3264,33,0,1264,2401,3249,3265,3265,3265,400,49,880,2048,3169,3297,3264,3216,49,16"
57,1,1,1,2,2025-12-08T23:05:15.771835Z,"2816,3216,3233,3248,3264,33,0,1248,2385,3216,3217,3233,3216,368,1,848,1985,3105,3216,3216,3232,1409,17,16,1633,2752,3216,3232,3233,3232,33,16,1313,2449,3248,3264,3296,3280,401,1,912,2080,3169,3265,3264,3264,1392,1,1633,2769"
58,1,1,1,2,2025-12-08T23:05:15.874835Z,"3200,3233,865,16,545,1824,2913,3248,3248,3232,3249,65,0,1456,2560,3217,3233,3233,3233,48,1,1073,2209,3217,3233,3232,3232,848,16,721,1872,2960,3248,3265,3248,3264,33,0,1520,2609,3249,3264,3264,3248,48,0,1104,2193,3249,3264"
59,1,1,1,2,2025-12-08T23:05:15.977835Z,"1408,32,0,1265,2368,3217,3217,3265,3232,337,16,913,2016,3040,3217,3232,3248,1377,48,1,1648,2704,3216,3232,3232,3233,32,32,1296,2401,3233,3265,3265,3265,352,17,961,2065,3104,3265,3233,3264,1409,1,112,1696,2752,3265,3264,3281"
60,1,1,1,2,2025-12-08T23:05:16.080835Z,"17,736,1840,2848,3216,3233,3232,2993,32,0,1472,2529,3216,3232,3248,3216,49,1,1089,2144,3136,3216,3233,3232,784,0,704,1792,2848,3265,3265,3281,2880,32,16,1489,2513,3249,3265,3280,3265,64,17,1120,2144,3153,3217,3232,3280,768"
61,1,1,1,2,2025-12-08T23:05:16.183835Z,"1329,2321,3217,3233,3233,3232,224,16,897,1952,2961,3233,3232,3232,1265,17,32,1616,2640,3232,3232,3232,3248,32,1,1265,2305,3216,3265,3264,3265,257,17,944,2000,3025,3264,3264,3264,1296,17,224,1665,2672,3232,3232,3233,3280,33,17"
62,1,1,1,2,2025-12-08T23:05:16.286835Z,"2896,3216,3233,3249,2625,17,1,1457,2448,3217,3232,3232,3233,49,0,1120,2144,3089,3232,3248,3265,721,16,737,1777,2768,3232,3217,3232,2560,32,17,1504,2512,3248,3265,3265,3265,49,0,1121,2160,3152,3264,3249,3280,721,16,769,1824"
63,1,1,1,2,2025-12-08T23:05:16.389835Z,"3216,3200,3249,177,16,913,1953,2928,3232,3232,3233,1168,17,96,1617,2641,3217,3248,3232,3233,33,1,1296,2320,3200,3232,3216,3264,161,1,929,1968,2992,3265,3265,3264,1200,16,305,1664,2688,3264,3265,3233,3136,33,0,1312,2353,3248"
64,1,1,1,2,2025-12-08T23:05:16.492835Z,"3216,1840,16,0,1472,2496,3216,3217,3232,3216,65,0,1153,2176,3152,3232,3233,3233,592,16,753,1841,2849,3232,3265,3232,1857,17,0,1505,2561,3248,3264,3265,3280,64,16,1200,2256,3233,3265,3265,3264,561,17,816,1888,2896,3248,3280"
65,1,1,1,2,2025-12-08T23:05:16.595835Z,"32,17,961,2017,3009,3217,3217,3217,1056,16,273,1664,2688,3216,3232,3232,3232,32,1,1345,2369,3200,3233,3232,3232,65,17,976,2065,3072,3265,3297,3264,1105,17,544,1744,2769,3264,3264,3265,3265,32,1,1361,2369,3265,3280,3265,3264"
66,1,1,1,2,2025-12-08T23:05:16.698835Z,"768,1505,2528,3216,3217,3233,3233,48,0,1153,2208,3185,3232,3232,3232,496,32,801,1872,2881,3216,3233,3232,1696,32,753,1457,2497,3249,3249,3281,3280,32,1,1232,2288,3248,3264,3264,3265,528,0,1009,1936,2928,3233,3265,3265,1889,16"
67,1,1,1,2,2025-12-08T23:05:16.801835Z,"2417,3073,3232,3217,3216,976,49,465,1696,2721,3216,3232,3232,3232,33,0,1345,2385,3201,3232,3232,3232,48,16,992,2049,3057,3216,3264,3248,977,17,576,1745,2784,3264,3264,3265,3264,33,0,1408,2465,3264,3264,3264,3265,64,17,1057"
68,1,1,1,2,2025-12-08T23:05:16.903835Z,"3200,3216,3232,3216,912,17,528,1713,2721,3216,3233,3233,3232,32,17,1376,2401,3216,3233,3232,3233,48,17,992,2048,3056,3233,3232,3232,881,16,624,1761,2801,3265,3265,3265,3232,49,33,1392,2448,3216,3233,3232,3232,48,17,1057,2145"
69,1,1,1,2,2025-12-08T23:05:17.006835Z,"3217,3232,3232,32,0,1185,2241,3200,3232,3232,3233,352,0,816,1905,2913,3232,3233,3233,1377,17,1,1553,2577,3201,3217,3232,3232,32,0,1201,2272,3248,3265,3264,3281,368,1,865,1952,2960,3264,3264,3265,1425,32,1,1601,2640,3264"
70,1,1,1,2,2025-12-08T23:05:17.109835Z,"3216,593,17,641,1728,2752,3233,3233,3232,3056,17,1,1393,2449,3216,3233,3233,3217,49,0,1025,2065,3072,3216,3232,3248,785,17,513,1729,2753,3265,3264,3249,3056,33,17,1425,2480,3248,3265,3264,3232,48,17,1025,2097,3089,3233,3216"
71,1,1,1,2,2025-12-08T23:05:17.211835Z,"49,1,641,1761,2801,3217,3233,3248,2800,32,1,1424,2448,3217,3232,3233,3233,49,0,1057,2129,3168,3216,3264,3232,752,1,592,1777,2848,3264,3264,3265,2849,32,16,1473,2545,3265,3265,3265,3264,49,17,1104,2208,3201,3233,3280,3280"
72,1,1,1,2,2025-12-08T23:05:17.314835Z,"1,1233,2305,3201,3233,3232,3216,208,1,881,1984,3008,3232,3232,3233,1233,16,1,1616,2673,3217,3249,3249,3249,33,0,1264,2353,3248,3264,3264,3280,225,49,944,2049,3105,3264,3264,3265,1265,16,1,1680,2752,3281,3265,3297,3296,33"
73,1,1,1,2,2025-12-08T23:05:17.417835Z,"1904,2865,3217,3232,3232,2480,16,0,1456,2528,3217,3233,3233,3233,49,0,1088,2145,3201,3217,3233,3232,641,16,720,1824,2865,3217,3233,3233,2321,16,33,1521,2592,3249,3265,3264,3265,49,16,1136,2209,3217,3297,3281,3280,673,17,753"
74,1,1,1,2,2025-12-08T23:05:17.520835Z,"3184,3200,3233,3248,96,16,912,2000,3008,3216,3232,3232,1120,17,0,1648,2704,3216,3232,3248,3233,32,1,1296,2368,3200,3201,3216,3232,113,17,977,2080,3120,3264,3264,3264,1168,17,208,1712,2784,3265,3265,3265,3280,33,1,1360,2432"
75,1,1,1,2,2025-12-08T23:05:17.623835Z,"3217,3232,2001,16,1,1488,2545,3217,3233,3233,3233,49,1,1104,2193,3201,3249,3232,3233,560,17,753,1841,2881,3233,3233,3232,1953,16,1,1553,2624,3248,3281,3264,3265,48,1,1185,2272,3249,3265,3281,3248,592,1,800,1905,2944,3265"
76,1,1,1,2,2025-12-08T23:05:17.726835Z,"3216,49,1,944,2016,3041,3216,3232,3232,1041,17,417,1664,2720,3217,3232,3233,3232,33,0,1312,2385,3216,3232,3233,3233,64,16,960,2032,3104,3264,3264,3265,1072,16,353,1745,2801,3265,3233,3265,3265,32,1,1377,2448,3249,3265,3264"
77,1,1,1,2,2025-12-08T23:05:17.829835Z,"16,496,1505,2561,3217,3232,3232,3232,48,17,1152,2209,3201,3233,3233,3233,480,16,769,1856,2897,3232,3233,3232,1681,16,0,1472,2529,3248,3265,3265,3264,49,17,1201,2272,3248,3265,3264,3264,513,16,817,1920,2944,3264,3265,3265,1584"
78,1,1,1,2,2025-12-08T23:05:17.932835Z,"976,1952,2961,3233,3232,3233,945,16,177,1680,2721,3216,3216,3232,3216,17,1,1329,2401,3217,3217,3233,3233,48,0,960,2064,3073,3216,3265,3281,976,17,688,1760,2816,3265,3265,3265,3265,0,0,1361,2416,3249,3264,3281,3281,64,16"
79,1,1,1,2,2025-12-08T23:05:18.035835Z,"2960,3216,3233,3233,3233,17,1,1184,2257,3201,3216,3217,3233,385,16,785,1904,2945,3249,3185,3217,1409,16,16,1553,2624,3232,3233,3265,3281,33,0,1249,2352,3249,3265,3264,3264,432,33,880,1985,3025,3265,3281,3265,1441,32,0,1633"
80,1,1,1,2,2025-12-08T23:05:18.138835Z,"3201,3232,3217,848,17,369,1712,2769,3233,3216,3217,3105,32,17,1392,2464,3201,3216,3217,3200,33,0,1008,2096,3137,3217,3232,3232,848,17,656,1825,2865,3248,3249,3265,3249,16,17,1424,2497,3217,3248,3232,3185,48,0,1008,2065,3121"
81,1,1,1,2,2025-12-08T23:05:18.242835Z,"3232,3248,33,0,1217,2272,3217,3248,3249,3232,273,32,817,1937,2960,3217,3233,3232,1297,16,0,1584,2641,3249,3281,3216,3233,32,1,1216,2304,3185,3248,3233,3233,257,32,849,1953,3216,3233,3233,3232,49,49,1104,2224,3264,3296,3281"
82,1,1,1,2,2025-12-08T23:05:18.345835Z,"16,1,1233,2321,3216,3232,3217,3201,193,0,848,1937,3008,3217,3233,3233,1248,16,17,1617,2625,3217,3217,3201,3233,32,0,1248,2353,3248,3264,3281,3265,257,16,912,2033,3072,3233,3233,3216,976,17,1,1664,2721,3264,3265,3264,3265"
83,1,1,1,2,2025-12-08T23:05:18.448835Z,"1,1584,2624,3217,3233,3232,2480,0,0,1425,2512,3217,3232,3233,3233,49,1,1072,2176,3185,3233,3232,3216,673,1,721,1809,2864,3217,3280,3264,2641,0,1,1488,2577,3232,3264,3232,3233,49,17,1104,2208,3249,3264,3281,3264,688,17"
84,1,1,1,2,2025-12-08T23:05:18.551835Z,"2353,3216,3217,3217,3233,145,32,881,1952,2993,3233,3217,3249,1153,17,0,1600,2673,3217,3248,3232,3232,32,16,1217,2321,3201,3233,3233,3264,160,17,929,2017,3073,3233,3249,3264,1184,1,1,1664,2721,3264,3264,3281,3264,17,0,1296"
85,1,1,1,2,2025-12-08T23:05:18.654835Z,"3216,3233,3216,2177,17,0,1441,2513,3233,3265,3217,3217,17,16,1072,2160,3184,3233,3233,3232,593,16,721,1824,2881,3232,3232,3232,2033,16,0,1505,2592,3249,3281,3296,3265,48,17,1104,2192,3248,3264,3265,3265,624,32,833,1889,2945"
86,1,1,1,2,2025-12-08T23:05:18.757835Z,"3232,3217,64,16,912,2017,3056,3216,3233,3232,1073,1,0,1680,2736,3216,3233,3232,3232,33,0,1296,2400,3233,3216,3232,3233,64,17,977,2097,3152,3265,3264,3280,1136,33,1057,1680,2752,3232,3264,3280,3264,33,1,1361,2464,3265,3264"
87,1,1,1,2,2025-12-08T23:05:18.860835Z,"1329,16,1,1505,2592,3217,3233,3232,3217,33,0,1120,2225,3201,3233,3216,3233,496,16,753,1873,2929,3232,3232,3217,1792,17,0,1505,2625,3265,3265,3265,3280,49,16,1200,2401,3201,3233,3265,3265,528,17,800,1937,2992,3265,3297,3264"
88,1,1,1,2,2025-12-08T23:05:18.963835Z,"17,944,2032,3072,3216,3232,3201,961,16,112,1681,2768,3216,3217,3232,3233,17,16,1312,2417,3216,3233,3233,3233,48,0,945,2081,3104,3232,3233,3232,945,1,161,1713,2784,3264,3265,3265,3248,32,0,1392,2496,3248,3264,3264,3265,49"
89,1,1,1,2,2025-12-08T23:05:19.065835Z,"1424,2096,3120,3232,3216,3248,928,16,193,1713,2784,3200,3216,3232,3217,32,0,1360,2449,3217,3233,3232,3233,48,17,993,2113,3121,3201,3232,3216,944,17,305,1777,2864,3264,3297,3265,3265,32,16,1424,2513,3264,3265,3265,3264,64,1"
90,1,1,1,2,2025-12-08T23:05:19.168835Z,"2720,3217,3233,3233,3232,49,17,1168,2273,3201,3233,3232,3233,352,0,784,1889,2945,3200,3233,3233,1409,16,1,1537,2609,3233,3232,3216,3265,17,1,1232,2352,3249,3265,3248,3232,353,48,912,1969,3025,3249,3249,3248,1441,16,17,1600"
91,1,1,1,2,2025-12-08T23:05:19.271835Z,"3232,3233,3233,848,33,273,1728,2800,3216,3232,3232,3168,33,0,1376,2448,3232,3233,3232,3232,48,17,1009,2096,3136,3216,3216,3217,817,17,449,1776,2848,3265,3280,3281,416,17,0,1393,2497,3232,3248,3264,3264,49,0,1040,2161,3200"
92,1,1,1,2,2025-12-08T23:05:19.374835Z,"3232,3233,32,0,1200,2288,3232,3233,3216,3249,288,16,816,1936,2976,3217,3249,3232,1328,16,1,1568,2641,3217,3232,3232,3232,48,16,1201,2336,3249,3264,3265,3281,304,16,864,1984,3041,3265,3265,3264,1345,32,1,1616,2705,3281,3296"
93,1,1,1,2,2025-12-08T23:05:19.477835Z,"640,0,432,1744,2801,3217,3232,3249,2753,17,1,1408,2464,3217,3233,3233,3233,64,16,1009,2112,3137,3233,3248,3233,737,17,448,1744,2832,3265,3265,3265,2833,49,32,1377,2481,3216,3232,3232,3232,49,1,1008,2128,3152,3216,3280,3265"
94,1,1,1,2,2025-12-08T23:05:19.580835Z,"0,1233,2304,3217,3217,3232,3233,192,32,849,1953,3008,3248,3232,3232,1217,16,0,1601,2689,3232,3216,3232,3248,49,1,1232,2352,3216,3233,3264,3264,225,1,913,2033,3089,3249,3264,3265,1249,17,1,1665,2753,3265,3281,3264,3249,32"
95,1,1,1,2,2025-12-08T23:05:19.684835Z,"1793,2913,3216,3217,3216,2384,32,1,1456,2528,3216,3232,3249,3233,48,0,1072,2176,3200,3233,3216,3232,641,0,609,1824,2912,3185,3232,3249,2545,17,0,1504,2608,3232,3216,3216,1201,17,0,1696,2768,3264,3264,3265,3265,33,1,1297"
96,1,1,1,2,2025-12-08T23:05:19.787835Z,"3200,3232,3249,2241,16,0,1456,2529,3217,3232,3249,3248,48,32,1057,2161,3200,3233,3233,3233,608,16,656,1825,2880,3216,3249,3217,2064,33,0,1520,2609,3265,3216,3233,3232,48,1,1121,2240,3264,3281,3280,3264,625,16,753,1888,2961"
97,1,1,1,2,2025-12-08T23:05:19.890835Z,"3232,3233,49,48,897,2017,3057,3232,3232,3232,1089,17,1,1649,2736,3232,3232,3233,3265,32,17,1297,2385,3217,3233,3217,3280,33,0,384,1904,2945,3201,3200,3248,1057,17,0,1489,2624,3184,3233,3216,3296,49,1,1392,2513,3248,3265"
98,1,1,1,2,2025-12-08T23:05:19.993835Z,"593,17,49,1520,2624,3233,3217,3217,3232,32,0,1136,2272,3216,3233,3248,3233,529,16,753,1872,2976,3216,3233,3232,896,49,1,1553,2656,3281,3249,3264,3233,0,0,1185,2320,3248,3265,3264,3264,528,32,800,1920,3009,3249,3265,3264"
99,1,1,1,3,2025-12-08T23:05:25.736995Z,"1232,1792,2769,3233,3217,3216,2033,16,0,1456,2433,3201,3217,3216,3232,49,0,1120,2112,3056,3217,3232,3233,561,17,784,1872,2769,3233,3233,3232,2193,17,16,1521,2512,3249,3265,3264,3265,48,1,1169,2193,3168,3265,3264,3264,593,672"
100,1,1,1,3,2025-12-08T23:05:25.838995Z,"3137,3201,3232,3232,1744,32,0,1441,2449,3217,3217,3217,3232,33,1,1072,2128,3105,3216,3233,3233,465,0,704,1793,2800,3217,3217,3233,1201,32,1,1489,2545,3265,3265,3264,3264,48,17,1121,2208,3217,3265,3281,3249,432,16,704,1825"
101,1,1,1,3,2025-12-08T23:05:25.941997Z,"3216,3233,3232,65,16,897,2001,3088,3217,3216,3232,896,0,0,1664,2737,3233,3248,3217,3233,1,0,1344,2433,3200,3232,3232,3232,32,17,1025,2129,3200,3264,3265,3249,993,16,384,1777,2849,3265,3265,3264,3264,32,1,1409,2464,3217"
102,1,1,1,3,2025-12-08T23:05:26.045995Z,"3233,81,0,976,2096,3121,3232,3233,3280,929,16,289,1728,2801,3217,3216,3216,3232,65,16,1377,2465,3249,3217,3233,3249,48,16,1056,2177,3217,3280,3280,3281,977,0,640,1824,2896,3265,3264,3249,3265,17,1,1472,2545,3264,3264,3265"
103,1,1,1,3,2025-12-08T23:05:26.148995Z,"16,0,1633,2673,3200,3184,3217,3233,48,1,1264,2320,3201,3232,3233,3217,465,1,912,1984,2977,3217,3232,3233,1600,17,97,1633,2656,3248,3281,3280,3297,48,16,1328,2385,3249,3280,3281,3281,512,16,993,2049,3057,3264,3201,3232,1680"
104,1,1,1,3,2025-12-08T23:05:26.251995Z,"1441,2096,3024,3216,3216,3201,993,17,737,1777,2768,3216,3233,3233,3217,33,16,1472,2432,3216,3217,3232,3233,49,17,1136,2129,3056,3281,3297,3297,1040,16,816,1856,2817,3249,3313,3264,3280,49,65,1488,2480,3249,3264,3265,3232,65,33"
105,1,1,1,3,2025-12-08T23:05:26.354995Z,"2880,3216,3217,3232,3216,33,1,1264,2241,3152,3216,3217,3232,432,1,928,1920,2849,3216,3232,3233,1472,17,305,1601,2576,3217,3216,3232,3281,33,17,1313,2289,3201,3264,3281,3281,464,17,976,1984,2897,3264,3264,3264,1472,33,496,1649"
106,1,1,1,3,2025-12-08T23:05:26.458995Z,"3248,3217,3233,896,17,768,1744,2672,3216,3217,3233,3216,33,33,1408,2384,3217,3217,3233,3233,49,0,1089,2048,2961,3217,3233,3217,880,17,817,1793,2736,3248,3264,3265,3281,65,1,1472,2432,3249,3265,3264,3264,49,433,1568,2512,3232"
107,1,1,1,3,2025-12-08T23:05:26.561995Z,"3217,865,16,753,1745,2673,3217,3232,3232,3041,32,0,1424,2369,3201,3232,3233,3216,49,16,1137,2080,2993,3217,3217,3216,817,32,769,1776,2721,3265,3280,3280,3121,33,16,1521,2448,3248,3264,3281,3264,65,1,1216,2113,3040,3281,3264"
108,1,1,1,3,2025-12-08T23:05:26.664995Z,"33,0,1280,2240,3120,3217,3233,3201,273,1,977,1904,2848,3216,3232,3233,1296,16,481,1601,2545,3216,3233,3216,3233,33,1,1280,2256,3169,3280,3281,3280,321,17,1009,2001,2913,3264,3264,3265,1328,17,656,1681,2624,3264,3280,3296,3296"
109,1,1,1,3,2025-12-08T23:05:26.767995Z,"992,1697,2641,3217,3232,3216,2608,32,1,1456,2416,3217,3217,3232,3232,49,17,1153,2113,3025,3233,3217,3216,704,17,785,1793,2736,3216,3265,3265,2832,17,0,1536,2497,3248,3264,3264,3264,64,17,1200,2192,3105,3264,3264,3265,768,16"
110,1,1,1,3,2025-12-08T23:05:26.870995Z,"2272,3200,3232,3233,3232,161,0,976,1968,2880,3216,3233,3232,1185,16,672,1649,2609,3201,3216,3217,3216,17,0,1329,2288,3201,3232,3216,3248,192,17,1057,2049,2960,3248,3264,3265,1233,17,705,1713,2673,3264,3232,3249,3217,32,0,1409"
111,1,1,1,3,2025-12-08T23:05:26.972995Z,"3217,3249,3233,3232,145,1,1040,2017,2912,3232,3232,3232,1169,32,688,1681,2624,3217,3232,3233,3233,17,0,1361,2320,3201,3233,3232,3232,144,16,1104,2097,2929,3281,3264,3265,1200,16,752,1744,2673,3265,3265,3232,3280,49,16,1408,2369"
112,1,1,1,3,2025-12-08T23:05:27.075995Z,"3200,3216,2241,16,193,1521,2448,3217,3216,3232,3233,49,1,1216,2161,3040,3217,3217,3216,592,16,880,1840,2752,3217,3232,3249,2081,16,337,1601,2545,3249,3264,3264,3265,48,1,1249,2209,3104,3264,3265,3265,353,16,929,1888,2817,3264"
113,1,1,1,3,2025-12-08T23:05:27.177995Z,"3233,1073,48,176,1520,2449,3232,3264,3217,3232,48,0,1216,2160,3057,3232,3232,3232,544,16,897,1840,2784,3216,3233,3232,1152,33,176,1537,2497,3264,3264,3280,3280,49,16,1249,2225,3121,3249,3265,3280,528,16,881,1841,2753,3217,3232"
114,1,1,1,3,2025-12-08T23:05:27.280995Z,"48,0,1041,2081,2912,3217,3217,3249,976,17,705,1712,2640,3216,3217,3248,3232,17,1,1392,2337,3217,3232,3232,3233,48,16,1057,2032,2977,3233,3232,3249,945,16,720,1713,2657,3217,3233,3201,3232,33,17,1424,2400,3249,3265,3264,3264"
115,1,1,1,3,2025-12-08T23:05:27.383995Z,"96,1489,2449,3217,3233,3248,3216,32,16,1233,2208,3137,3232,3233,3216,401,33,896,1904,2865,3217,3232,3232,1425,16,177,1585,2544,3216,3264,3265,3280,32,1,1313,2288,3216,3264,3265,3264,416,1,961,1968,2928,3280,3264,3265,1457,32"
116,1,1,1,3,2025-12-08T23:05:27.486995Z,"2385,3025,3232,3249,3232,865,33,721,1745,2704,3217,3232,3232,3024,16,1,1425,2385,3201,3217,3217,3233,48,1,1104,2400,3008,3217,3265,3248,864,16,800,1809,2768,3265,3264,3264,3153,32,16,1456,2449,3216,3217,3216,3217,65,0,1152"
117,1,1,1,3,2025-12-08T23:05:27.589995Z,"3217,3264,3249,3216,17,32,1265,2224,3152,3232,3232,3233,272,16,929,1920,2881,3232,3216,3217,1280,16,241,1601,2576,3216,3217,3233,3248,48,32,1297,2320,3264,3280,3265,3265,289,17,992,2001,2960,3248,3264,3281,1312,17,416,1649,2640"
118,1,1,1,3,2025-12-08T23:05:27.692995Z,"3248,3233,736,16,753,1776,2752,3216,3233,3233,2592,32,1,1440,2432,3201,3201,3232,3264,64,0,1089,2112,3056,3232,3232,3232,688,16,800,1857,2816,3249,3264,3297,2640,32,17,1505,2512,3248,3265,3264,1328,48,1,1136,2224,3120,3265"
119,1,1,1,3,2025-12-08T23:05:27.796995Z,"1201,33,1,1296,2321,3185,3232,3233,3233,160,16,960,1985,2960,3217,3233,3249,1185,33,369,1664,2640,3200,3232,3232,3232,33,0,1313,2416,3264,3264,3265,3264,193,33,1024,2065,3041,3265,3265,3265,1216,16,1136,2161,3185,3280,3264,3264"
120,1,1,1,3,2025-12-08T23:05:27.899995Z,"384,1312,2337,3217,3233,3233,3233,128,32,992,2000,2976,3217,3232,3232,1121,17,433,1665,2657,3248,3233,3216,3248,33,1,1329,2337,3248,3264,3264,3264,129,32,1025,2064,3040,3265,3265,3265,1152,17,896,1648,2656,3249,3232,3248,3249,48"
121,1,1,1,3,2025-12-08T23:05:28.002995Z,"2224,2849,3217,3233,3233,1952,17,1,1520,2512,3216,3233,3233,3233,49,16,1169,2225,3136,3233,3248,3265,513,17,816,1840,2833,3216,3265,3265,1968,48,16,1553,2576,3265,3281,3265,3264,48,17,1201,2225,3168,3233,3249,3265,481,17,849"
122,1,1,1,3,2025-12-08T23:05:28.105995Z,"3233,3217,3232,3233,64,0,993,2032,3009,3233,3249,3233,976,17,416,1681,2688,3217,3232,3232,3232,33,1,1360,2384,3216,3232,3233,3232,64,16,1040,2097,3104,3264,3264,3281,977,32,593,1745,2848,3264,3265,3264,3265,33,17,1409,2465"
123,1,1,1,3,2025-12-08T23:05:28.208995Z,"3233,3233,1441,16,0,1520,2544,3216,3233,3232,3233,64,1,1184,2240,3201,3232,3233,3232,385,1,832,1905,2912,3216,3232,3233,1409,17,17,1616,2656,3249,3264,3265,3264,48,16,1265,2400,3248,3249,3264,3264,384,17,881,1969,2977,3264"
124,1,1,1,3,2025-12-08T23:05:28.311995Z,"3217,49,1,1024,2097,3089,3217,3233,3232,833,16,576,1744,2769,3217,3232,3232,3216,32,1,1408,2464,3217,3233,3233,3232,49,16,1072,2128,3169,3264,3264,3265,880,16,720,1825,2864,3264,3265,3264,3217,33,1,1472,2529,3249,3265,3265"
125,1,1,1,3,2025-12-08T23:05:28.414995Z,"17,160,1376,2448,3216,3233,3233,3232,32,16,1248,2305,3217,3233,3232,3232,288,17,881,1953,2977,3217,3233,3233,1312,16,16,1601,2656,3216,3248,3280,3264,48,0,1312,2385,3249,3265,3265,3233,256,17,880,1968,2976,3217,3232,3232,1280"
126,1,1,1,3,2025-12-08T23:05:28.517995Z,"1121,2113,3105,3233,3233,3233,753,0,688,1793,2832,3216,3233,3232,2641,32,17,1440,2497,3217,3232,3233,3232,49,16,1089,2176,3153,3233,3281,3265,768,16,769,1872,2896,3265,3264,3265,2801,33,1,1520,2560,3265,3265,3281,3265,49,16"
127,1,1,1,3,2025-12-08T23:05:28.619995Z,"2576,3185,3232,3232,3217,688,1,737,1808,2832,3217,3232,3233,2481,32,1,1473,2512,3232,3233,3232,3233,33,1,1104,2176,3169,3233,3232,3232,704,17,784,1889,2912,3249,3264,3265,2656,32,1,1520,2561,3248,3264,3265,3264,48,1,1169"
128,1,1,1,3,2025-12-08T23:05:28.722995Z,"3201,3216,3233,3232,32,16,1312,2353,3217,3233,3233,3233,144,16,960,2001,3008,3217,3233,3232,1169,16,256,1664,2672,3216,3233,3248,3232,33,1,1361,2481,3249,3264,3265,3265,176,32,1009,2481,3040,3233,3264,3264,1185,16,433,1712,2736"
129,1,1,1,3,2025-12-08T23:05:28.825995Z,"3217,3233,624,17,784,1841,2833,3216,3232,3233,2209,17,1,1505,2528,3217,3232,3232,3233,48,16,1152,2193,3169,3232,3233,3232,577,17,800,1889,2897,3265,3264,3281,2321,17,17,1584,2609,3217,3264,3264,3265,49,16,1216,2257,3233,3264"
130,1,1,1,3,2025-12-08T23:05:28.928995Z,"3088,33,1,1345,2368,3217,3232,3233,3233,65,17,993,2049,3025,3216,3233,3233,1088,16,528,1696,2705,3217,3232,3232,3184,32,17,1360,2384,3233,3265,3265,3265,80,17,1056,2096,3088,3232,3232,3232,1057,16,673,1761,2768,3265,3264,3264"
131,1,1,1,3,2025-12-08T23:05:29.032995Z,"48,848,1856,2832,3233,3232,3233,1809,16,1,1552,2545,3216,3233,3232,3232,32,16,1185,2224,3184,3233,3233,3232,496,16,800,1841,2848,3248,3264,3264,1953,32,1,1616,2625,3264,3264,3233,993,17,705,1776,2769,3264,3265,3265,3264,32"
132,1,1,1,3,2025-12-08T23:05:29.135995Z,"1952,2897,3248,3233,3232,1616,17,0,1553,2544,3232,3232,3232,3232,49,1,1200,2225,3168,3217,3233,3233,448,16,864,1904,2881,3248,3232,3233,1232,32,48,1600,2608,3264,3265,3265,3265,48,1,1264,2289,3248,3264,3264,3264,465,17,913"
133,1,1,1,3,2025-12-08T23:05:29.237995Z,"3216,3217,3233,3233,1488,16,1,1552,2545,3216,3233,3232,3233,32,16,1233,2240,3184,3233,3233,3233,400,16,865,1904,2881,3216,3217,3232,1425,16,177,1616,2625,3265,3264,3264,3265,33,0,1232,2241,3185,3217,3233,3232,368,16,880,1936"
134,1,1,1,3,2025-12-08T23:05:29.340995Z,"3264,3232,3233,48,17,1057,2081,3040,3217,3232,3232,848,17,688,1744,2736,3217,3232,3232,3041,17,0,1409,2417,3216,3233,3233,3233,49,16,1120,2160,3121,3265,3264,3265,880,17,720,1776,2784,3249,3264,3281,3104,32,0,1472,2496,3249"
135,1,1,1,3,2025-12-08T23:05:29.443995Z,"3232,1328,17,48,1585,2576,3216,3233,3233,3233,33,0,1249,2273,3200,3233,3233,3233,272,17,897,1936,2912,3216,3233,3201,1296,17,256,1648,2657,3249,3265,3264,3264,48,1,1329,2448,3216,3232,3280,3264,304,17,976,2001,2993,3265,3265"
136,1,1,1,3,2025-12-08T23:05:29.546995Z,"49,16,1105,2113,3088,3216,3233,3233,752,16,752,1792,2785,3232,3232,3233,2689,33,1,1457,2465,3216,3232,3232,3233,49,1,1104,2145,3104,3264,3264,3265,768,16,800,1857,2848,3232,3217,3232,2816,32,0,1521,2545,3249,3264,3265,3264"
137,1,1,1,3,2025-12-08T23:05:29.649995Z,"1,1472,2465,3217,3233,3232,3232,32,1,1312,2321,3216,3217,3232,3233,176,16,960,2000,2977,3216,3232,3232,1201,16,305,1665,2656,3217,3264,3265,3265,32,17,1377,2400,3249,3217,3233,3233,145,16,960,2001,2976,3217,3232,3233,1168,16"
138,1,1,1,3,2025-12-08T23:05:29.753995Z,"2193,3217,3217,3232,3233,641,16,785,1840,2832,3216,3232,3233,2257,17,1,1489,2561,3217,3232,3233,3232,49,17,1169,2193,3233,3232,3233,3264,672,17,864,1905,2897,3264,3265,3233,48,0,976,2016,3025,3264,3265,3265,1168,17,689,1728"
139,1,1,1,3,2025-12-08T23:05:29.856995Z,"3232,3233,3233,593,16,817,1841,2832,3217,3232,3233,2129,17,0,1521,2512,3216,3232,3233,3232,49,0,1168,2193,3136,3233,3232,3233,577,16,880,1920,2897,3264,3264,3264,2161,17,0,1568,2577,3265,3264,3265,3264,48,17,1249,2257,3201"
140,1,1,1,3,2025-12-08T23:05:29.959995Z,"3217,3232,33,1,1360,2369,3217,3217,3233,3217,65,17,1008,2033,2977,3217,3233,3233,1025,17,672,1696,2689,3217,3233,3200,3201,32,16,1425,2433,3249,3264,3264,3265,64,1,1024,2049,3009,3232,3232,3232,1008,17,673,1713,2705,3217,3264"
141,1,1,1,3,2025-12-08T23:05:30.062995Z,"49,16,848,1873,2848,3232,3233,3233,1648,17,1,1553,2544,3217,3233,3233,3233,33,0,1216,2209,3169,3217,3233,3232,48,16,865,1921,2897,3264,3264,3265,1809,32,161,1729,2577,3217,3232,3233,3233,33,0,1216,2225,3264,3264,3264,3264"
142,1,1,1,3,2025-12-08T23:05:30.165995Z,"0,1376,2384,3216,3232,3232,3232,48,17,1057,2081,3041,3216,3232,3216,913,16,688,1744,2737,3216,3233,3232,3232,33,1,1424,2416,3217,3264,3264,3264,48,16,1121,2128,3089,3216,3232,3264,944,17,753,1808,2801,3265,3265,3265,3264,33"
143,1,1,1,3,2025-12-08T23:05:30.269995Z,"1969,2912,3216,3233,3232,1408,16,160,1584,2625,3216,3233,3233,3232,32,1,1249,2257,3184,3232,3232,3232,337,16,896,1921,2896,3217,3232,3280,1424,17,320,1648,2641,3233,3233,3232,801,16,769,1808,2800,3264,3264,3265,3137,32,17,1473"
144,1,1,1,3,2025-12-08T23:05:30.372995Z,"3217,3201,3232,1312,32,160,1585,2576,3217,3233,3233,3232,32,1,1249,2257,3201,3233,3233,3233,257,17,929,1953,2913,3216,3233,3232,1281,16,272,1648,2657,3265,3265,3264,3264,48,16,1312,2337,3249,3264,3265,3264,272,17,960,2001,2976"
145,1,1,1,3,2025-12-08T23:05:30.475995Z,"3233,3233,48,1,1088,2112,3073,3216,3232,3232,721,16,753,1792,2769,3217,3233,3232,2576,17,0,1457,2449,3201,3233,3233,3233,49,16,1121,2177,3137,3264,3264,3232,673,16,784,1841,2849,3264,3264,3265,2592,33,0,1537,2544,3248,3264"
146,1,1,1,3,2025-12-08T23:05:30.578995Z,"65,17,304,1648,2657,3217,3232,3232,3232,32,1,1312,2337,3217,3233,3232,3233,160,1,976,2017,2992,3216,3232,3232,1168,16,416,1681,2704,3248,3265,3265,3265,16,0,1345,2384,3249,3265,3264,3264,176,16,1041,2081,3041,3264,3264,3265"
147,1,1,1,3,2025-12-08T23:05:30.681995Z,"16,1153,2177,3137,3233,3233,3233,609,16,816,1856,2832,3217,3232,3233,2145,16,0,1504,2512,3216,3232,3233,3233,49,16,1152,2192,3184,3264,3264,3264,624,17,832,1856,2848,3232,3233,3233,2049,17,0,1520,2529,3217,3264,3264,3265,49"
148,1,1,1,4,2025-12-08T23:05:35.260989Z,"3232,96,17,881,2049,3120,3216,3216,3248,1121,16,0,1680,2800,3217,3233,3216,3232,17,1,1280,2449,3217,3233,3233,3216,49,1,928,2128,3232,3265,3265,3265,1153,17,1,1744,2881,3264,3264,3296,3296,32,17,1377,2544,3280,3264,3233"
149,1,1,1,4,2025-12-08T23:05:35.364989Z,"16,16,1584,2705,3216,3233,3216,3232,49,1,1168,2304,3217,3232,3233,3232,560,1,721,1921,3009,3217,3232,3232,1889,16,0,1536,2672,3249,3249,3265,3248,33,1,1185,2352,3248,3265,3265,3265,593,16,768,1969,3105,3264,3264,3232,65"
150,1,1,1,4,2025-12-08T23:05:35.467989Z,"1921,2704,3248,3232,3216,3232,33,17,1169,2320,3216,3233,3217,3233,513,16,785,1952,3056,3217,3217,3233,1585,33,1,1568,2673,3185,3265,3264,3280,48,0,1200,2352,3249,3265,3265,3264,512,32,816,1968,3088,3280,3265,3280,1585,16,33"
151,1,1,1,4,2025-12-08T23:05:35.570989Z,"3216,3216,3248,3249,944,17,16,1729,2833,3216,3232,3233,3216,32,17,1361,2480,3201,3232,3232,3232,48,1,976,2129,3200,3216,3233,3232,944,32,272,1809,2912,3264,3265,3281,3265,32,0,1409,2545,3249,3264,3280,3264,48,1,993,2113"
152,1,1,1,4,2025-12-08T23:05:35.674989Z,"3233,3233,3233,17,0,1169,2304,3216,3216,3232,3232,369,1,785,1936,3024,3232,3217,3233,1424,17,1,1568,2705,3248,3201,3232,3217,48,16,1217,2368,3248,3265,3265,3265,384,0,848,2000,3088,3280,3264,3281,1393,16,1,2560,3201,3232"
153,1,1,1,4,2025-12-08T23:05:35.779989Z,"80,16,208,1761,2848,3216,3232,3232,3088,1,0,1393,2528,3216,3232,3201,3233,48,17,1008,2144,3201,3185,3217,3248,753,16,337,1777,2976,3248,3264,3264,3041,33,16,1457,2576,3264,3265,3296,3265,49,16,1057,2208,3217,3233,3248,3248"
154,1,1,1,4,2025-12-08T23:05:35.883989Z,"1,1648,2752,3217,3233,3233,2512,33,1,1425,2561,3216,3216,3233,3217,48,16,1056,2209,3201,3232,3233,3216,704,33,465,1841,2960,3233,3281,3264,2625,32,16,1504,2656,3265,3265,3249,3280,64,1,1105,2288,3249,3232,3233,3200,32,16"
155,1,1,1,4,2025-12-08T23:05:35.986989Z,"3008,3216,3232,3233,2320,17,0,1472,2609,3233,3233,3248,3249,65,1,1088,2241,3216,3216,3232,3233,640,0,577,1873,2993,3232,3264,3232,2561,17,1,1553,2689,3248,3265,3265,3281,48,17,1120,2288,3248,3265,3265,3265,641,16,688,1920"
156,1,1,1,4,2025-12-08T23:05:36.088989Z,"3232,3249,3232,1825,17,0,1472,2593,3216,3217,3201,3233,33,1,1089,2225,3201,3216,3232,3233,561,16,689,1857,2961,3200,3217,3232,1601,17,1,1504,2641,3249,3264,3248,3249,48,0,1152,2305,3249,3265,3264,3232,417,1,656,1905,2992"
157,1,1,1,4,2025-12-08T23:05:36.191989Z,"3248,3232,64,17,928,2064,3136,3232,3232,3232,976,1,0,1713,2801,3217,3232,3232,3233,33,1,1329,2464,3217,3217,3232,3232,48,16,960,2160,3232,3264,3264,3265,1025,17,113,1745,2880,3265,3249,3248,3264,33,16,1392,2513,3248,3265"
158,1,1,1,4,2025-12-08T23:05:36.294989Z,"1505,32,1,1536,2640,3216,3233,3233,3217,32,0,1169,2304,3201,3233,3232,3233,416,16,784,1937,3024,3232,3232,3233,1505,64,1,1568,2673,3265,3265,3264,3264,48,16,1232,2385,3249,3264,3265,3264,448,17,1040,1936,3024,3264,3264,3265"
159,1,1,1,4,2025-12-08T23:05:36.397989Z,"1,992,2129,3201,3217,3232,3233,896,17,177,1761,2848,3216,3232,3232,3232,32,1,1392,2497,3216,3232,3232,3232,49,1,1009,2145,3201,3265,3265,3264,913,17,384,1824,2928,3264,3264,3265,3265,32,1,1569,2544,3217,3232,3264,3280,64"
160,1,1,1,4,2025-12-08T23:05:36.501989Z,"1809,2704,3216,3233,3233,3233,32,16,1216,2320,3217,3216,3232,3233,320,16,833,1969,3025,3217,3217,3232,1361,32,1,1601,2688,3216,3233,3265,3280,48,16,1281,2400,3249,3265,3265,3265,337,17,880,2017,3041,3232,3233,3265,49,16,1089"
161,1,1,1,4,2025-12-08T23:05:36.604989Z,"3200,3232,3233,3232,33,0,1264,2353,3216,3232,3232,3233,273,16,849,1969,3008,3232,3233,3233,1296,17,0,1617,2672,3217,3232,3233,3233,33,1,1232,2336,3264,3265,3264,3264,288,16,896,2033,3072,3217,3232,3233,1265,16,16,1665,2752"
162,1,1,1,4,2025-12-08T23:05:36.707989Z,"3233,3216,720,16,545,1792,2849,3217,3232,3233,2657,33,0,1424,2512,3217,3232,3232,3232,33,17,1056,2144,3168,3233,3232,3232,673,16,688,1841,2913,3265,3264,3265,2672,33,1,1489,2577,3249,3281,3264,3265,48,16,1105,2225,3233,3280"
163,1,1,1,4,2025-12-08T23:05:36.810989Z,"3184,32,0,1249,2337,3217,3217,3233,3232,145,1,881,1984,3025,3216,3233,3233,1153,16,16,1617,2688,3217,3216,3233,3233,32,1,1265,2384,3249,3264,3264,3264,144,1,928,2048,3105,3264,3265,3264,177,16,0,1632,2704,3217,3217,3232"
164,1,1,1,4,2025-12-08T23:05:36.913989Z,"17,672,1825,2897,3217,3232,3233,2145,16,0,1472,2561,3216,3216,3233,3216,48,1,1105,2224,3201,3232,3217,3217,576,16,704,1840,2912,3217,3232,3265,2129,32,17,1520,2609,3249,3264,3281,3264,32,0,1104,2193,3233,3265,3280,3264,576"
165,1,1,1,4,2025-12-08T23:05:37.016989Z,"1440,2497,3217,3232,3233,3232,65,1,912,2000,3056,3233,3248,3233,1024,17,0,1649,2720,3217,3232,3232,3232,32,1,1297,2480,3200,3217,3265,3280,64,17,961,2081,3121,3264,3265,3264,1040,32,225,1712,2784,3248,3264,3280,3265,32,0"
166,1,1,1,4,2025-12-08T23:05:37.119989Z,"2944,3217,3232,3233,1553,16,1,1488,2561,3217,3217,3233,3232,48,17,1136,2224,3216,3232,3232,3233,448,16,753,1872,2928,3184,3233,3233,1568,17,1,1568,2657,3264,3265,3264,3264,49,1,1184,2592,3200,3232,3264,3264,449,17,801,1937"
167,1,1,1,4,2025-12-08T23:05:37.222989Z,"3232,3233,3233,48,16,976,2081,3120,3217,3233,3216,912,16,192,1713,2785,3216,3232,3233,3233,32,0,1360,2449,3217,3233,3233,3217,65,17,1025,2145,3200,3264,3280,3264,928,17,384,1792,2849,3217,3233,3232,3281,33,0,1425,2513,3248"
168,1,1,1,4,2025-12-08T23:05:37.325989Z,"3232,1393,17,1,1552,2624,3217,3232,3232,3232,32,1,1185,2288,3200,3232,3233,3232,336,17,801,1921,2977,3217,3217,3233,1377,17,1,1569,2672,3265,3265,3265,3265,33,1,1249,2352,3249,3201,3232,3217,305,17,864,1984,3041,3265,3264"
169,1,1,1,4,2025-12-08T23:05:37.428989Z,"32,0,1041,2129,3153,3233,3232,3232,801,16,481,1761,2817,3217,3232,3233,3041,32,0,1409,2513,3217,3233,3232,3233,49,1,1041,2145,3233,3264,3264,3264,817,16,657,1840,2897,3265,3264,3232,2961,16,1,1473,2545,3264,3265,3264,3265"
170,1,1,1,4,2025-12-08T23:05:37.531989Z,"0,944,2049,3072,3233,3232,3232,737,16,576,1793,2848,3232,3217,3233,2689,16,0,1424,2513,3216,3233,3217,3233,48,1,1072,2161,3185,3216,3265,3265,736,16,721,1856,2912,3264,3265,3264,2592,17,881,2001,3057,3264,3264,3280,1248,32"
171,1,1,1,4,2025-12-08T23:05:37.634989Z,"2224,3217,3217,3233,3232,673,1,625,1809,2848,3217,3233,3233,2368,32,0,1456,2512,3216,3233,3217,3233,49,17,1088,2177,3185,3233,3232,3264,672,16,753,1872,2928,3264,3264,3264,2368,32,0,1473,2528,3249,3264,3265,3280,48,16,1152"
172,1,1,1,4,2025-12-08T23:05:37.737989Z,"3217,3233,3233,3232,32,1,1280,2368,3201,3216,3233,3232,97,16,928,2017,3040,3216,3233,3232,1105,17,1,1649,2705,3217,3217,3233,3233,32,17,1345,2417,3248,3265,3264,3264,112,16,928,2017,3088,3217,3233,3233,1089,17,16,1665,2705"
173,1,1,1,4,2025-12-08T23:05:37.840989Z,"3216,3216,561,16,753,1856,2897,3217,3233,3217,1808,17,0,1488,2544,3216,3232,3233,3233,48,16,1121,2208,3200,3217,3217,3216,513,16,737,1840,2881,3217,3232,3232,1665,16,1,1489,2848,3232,3233,3281,3264,48,17,1184,2273,3249,3264"
174,1,1,1,4,2025-12-08T23:05:37.943989Z,"976,32,16,1312,2385,3217,3232,3233,3232,49,1,944,2032,3072,3232,3232,3232,960,0,112,1680,2736,3216,3232,3233,3232,33,17,1376,2433,3249,3265,3264,3265,64,17,992,2112,3201,3265,3264,3265,976,16,256,1744,2800,3265,3296,3264"
175,1,1,1,4,2025-12-08T23:05:38.045989Z,"16,0,1264,2336,3217,3233,3217,3233,48,17,960,2064,3105,3232,3232,3233,896,17,209,1713,2784,3232,3233,3232,3232,32,0,1377,2465,3216,3265,3264,3265,48,1,1024,2145,3184,3264,3264,3264,913,17,384,1776,2849,3249,3264,3265,3264"
176,1,1,1,4,2025-12-08T23:05:38.148989Z,"16,1697,2785,3217,3232,3233,1361,16,17,1568,2656,3216,3233,3232,3232,33,1,1201,2305,3200,3233,3232,3233,320,17,816,1952,3008,3232,3233,3265,1393,17,0,1648,2737,3264,3265,3232,3233,32,0,1265,2384,3248,3264,3265,3264,336,17"
177,1,1,1,4,2025-12-08T23:05:38.251989Z,"2593,3217,3233,3233,3233,49,1,1041,2145,3168,3216,3232,3233,769,17,449,1776,2848,3217,3233,3233,2880,17,1,1424,2513,3232,3216,3233,3248,48,17,1089,2209,3249,3264,3265,3265,752,16,705,1841,2913,3264,3265,3264,2944,32,16,1473"
178,1,1,1,4,2025-12-08T23:05:38.354989Z,"3216,3248,3233,1249,17,1,1616,2688,3217,3233,3232,3232,33,0,1264,2352,3216,3233,3233,3232,192,16,880,1985,3025,3233,3232,3232,1232,32,0,1680,2769,3265,3265,3264,3264,33,1,1312,2417,3248,3265,3264,3264,208,1,944,2048,3105"
179,1,1,1,4,2025-12-08T23:05:38.457989Z,"3233,3233,48,0,1088,2192,3201,3233,3232,3232,656,17,688,1824,2881,3232,3233,3232,2385,33,0,1473,2545,3216,3233,3201,3201,48,17,1136,2241,3248,3264,3264,3264,672,17,897,1888,2897,3216,3264,3265,2353,33,0,1521,2608,3249,3265"
180,1,1,1,4,2025-12-08T23:05:38.560989Z,"48,16,1,1649,2704,3217,3217,3232,3233,32,0,1297,2369,3216,3216,3232,3232,80,17,928,2017,3056,3232,3232,3233,1072,33,17,1696,2753,3264,3265,3264,3264,32,1,1360,2417,3217,3217,3233,3264,81,17,977,2080,3120,3264,3264,3265"
181,1,1,1,4,2025-12-08T23:05:38.663989Z,"1,1105,2208,3201,3232,3233,3232,528,17,737,1856,2897,3217,3232,3233,1776,17,1,1505,2576,3216,3232,3233,3233,49,1,1136,2224,3249,3265,3264,3264,545,17,785,1920,2976,3264,3264,3265,1760,33,1,1553,2625,3248,3265,3265,3264,49"
182,1,1,1,4,2025-12-08T23:05:38.766989Z,"1681,2769,3217,3233,3232,3232,33,17,1328,2401,3217,3249,3232,3233,49,0,960,2064,3088,3217,3233,3233,944,17,240,1713,2833,3216,3232,3264,3264,33,0,1392,2480,3264,3264,3216,3232,49,16,1024,2129,3153,3265,3264,3265,976,17,433"
183,1,1,1,4,2025-12-08T23:05:38.869989Z,"3217,3233,3232,3233,400,16,784,1888,2928,3216,3232,3232,1473,17,1,1537,2593,3217,3232,3233,3232,33,1,1184,2273,3217,3264,3232,3264,417,16,849,1969,3008,3264,3264,3233,1328,16,0,1568,2640,3249,3265,3265,3265,33,16,1232,2321"
184,1,1,1,4,2025-12-08T23:05:38.971989Z,"3201,3233,3233,337,17,800,1905,2944,3232,3232,3233,1361,17,0,1553,2624,3216,3233,3232,3233,32,0,1201,2272,3216,3217,3248,3232,304,16,865,1985,3024,3264,3264,3265,897,17,0,1569,2656,3265,3264,3265,3264,33,16,1249,2337,3248"
185,1,1,1,4,2025-12-08T23:05:39.074989Z,"3249,2864,32,0,1393,2448,3216,3233,3232,3233,49,0,1024,2112,3137,3232,3233,3233,753,17,465,1761,2817,3216,3233,3233,2672,32,1,1457,2545,3248,3264,3265,3280,49,1,1057,2144,3168,3265,3265,3265,768,17,704,1841,2913,3265,3264"
186,1,1,1,4,2025-12-08T23:05:39.177989Z,"64,17,849,1968,3008,3232,3232,3232,1216,17,0,1633,2704,3216,3233,3233,3232,33,0,1265,2369,3217,3233,3233,3233,177,0,928,1968,3025,3264,3265,3265,1248,17,16,2081,2752,3216,3265,3265,3265,33,17,1328,2432,3248,3265,3265,3265"
187,1,1,1,4,2025-12-08T23:05:39.281989Z,"0,1473,2560,3216,3233,3232,3232,49,0,1104,2192,3200,3233,3233,3233,641,16,721,1840,2896,3217,3233,3233,2193,17,1,1473,2560,3216,3232,3233,3265,49,16,1169,2273,3216,3233,3233,3232,32,0,1297,2384,3217,3217,3232,3232,129,16"
188,1,1,1,4,2025-12-08T23:05:39.384989Z,"2896,3216,3232,3233,3233,49,16,1137,2209,3217,3233,3233,3232,560,17,736,1856,2897,3216,3232,3233,2033,16,1,1488,2801,3217,3232,3265,3264,49,17,1185,2273,3249,3216,3233,3232,561,17,801,1920,2960,3248,3265,3264,1985,17,0,1553"
189,1,1,1,4,2025-12-08T23:05:39.487989Z,"3232,3232,3233,1024,17,96,1681,2736,3216,3217,3232,3232,32,1,1328,2400,3217,3232,3233,3233,64,17,993,2064,3088,3233,3248,3233,1008,17,304,1745,2801,3264,3232,3233,3232,17,1,1393,2481,3265,3265,3265,3265,49,17,1024,2112,3152"
190,1,1,1,4,2025-12-08T23:05:39.589989Z,"3233,3232,960,17,225,1697,2753,3217,3233,3233,3232,33,64,1344,2417,3233,3281,3233,3232,48,1,976,2065,3089,3233,3233,3249,865,0,432,1776,2832,3264,3265,3265,3233,16,0,1361,2464,3248,3265,3280,3296,48,17,1040,2145,3168,3264"
191,1,1,1,4,2025-12-08T23:05:39.692989Z,"1408,33,1,1216,2305,3216,3216,3216,3201,385,16,801,1905,2961,3217,3233,3232,1456,17,0,1585,2640,3216,3233,3232,3217,32,17,1264,2305,3249,3264,3297,3281,193,16,833,1936,3008,3265,3265,3264,1456,16,0,1632,2704,3249,3264,3264"
192,1,1,1,4,2025-12-08T23:05:39.796989Z,"16,529,1760,2817,3217,3233,3232,3217,33,17,1409,2497,3217,3248,3248,3232,48,1,1040,2128,3136,3233,3233,3233,817,16,544,1760,2784,3265,3265,3264,3168,33,1073,1936,2976,3217,3233,3249,1408,33,16,1633,2705,3264,3264,3265,3280,32"
193,1,1,1,4,2025-12-08T23:05:39.899989Z,"2161,2832,3232,3232,3232,2833,32,1,1409,2480,3217,3216,3232,3233,48,0,1056,2145,3169,3248,3233,3233,753,16,561,1776,2832,3232,3232,3280,2896,32,1,1457,2545,3217,3232,3264,3264,49,17,1105,2192,3233,3313,3265,3280,784,1,721"
194,1,1,1,4,2025-12-08T23:05:40.001989Z,"3200,3232,3232,3233,2625,16,1,1408,2448,3217,3217,3200,3232,48,1,1056,2144,3153,3232,3217,3232,704,48,657,1776,2848,3200,3232,3232,2353,33,1,1488,2689,3216,3232,3248,3281,49,16,1120,2224,3232,3265,3264,3264,688,16,737,1857"
195,1,1,1,4,2025-12-08T23:05:40.104989Z,"3200,3200,3232,144,17,608,1761,2816,3216,3217,3185,913,17,0,1504,2608,3232,3265,3249,3233,32,16,1280,2417,3200,3248,3201,3217,97,16,929,2048,3105,3232,3233,3232,1121,32,1,1697,2769,3216,3216,3233,3217,17,0,1313,2401,3217"
196,1,1,1,4,2025-12-08T23:05:40.207989Z,"3216,2016,32,1,1504,2608,3217,3233,3248,3216,32,1,1152,2256,3200,3233,3232,3232,576,16,752,1889,2945,3233,3249,3249,1872,17,0,1537,2641,3249,3265,3201,3232,48,16,1217,2304,3248,3280,3265,3264,592,16,816,1952,3009,3265,3264"
197,1,1,1,5,2025-12-08T23:05:45.345974Z,"1280,2368,3217,3232,3233,3232,64,16,897,2032,3104,3233,3232,3232,960,17,0,1680,2801,3217,3232,3233,3233,32,1,1504,2464,3217,3264,3265,3265,64,1,992,2177,3248,3265,3265,3264,976,17,16,1793,2928,3264,3264,3280,3264,16,17"
198,1,1,1,5,2025-12-08T23:05:45.449974Z,"3121,3233,3232,3232,1521,16,0,1584,2720,3217,3233,3233,3233,48,17,1233,2385,3216,3232,3233,3233,480,16,833,2016,3121,3233,3232,3233,1568,33,16,1664,2801,3264,3265,3264,3264,49,0,1392,2433,3248,3265,3281,3265,464,16,1648,2657"
199,1,1,1,5,2025-12-08T23:05:45.552974Z,"3233,3233,1473,16,0,1600,2736,3216,3217,3233,3232,48,0,1233,2384,3216,3233,3233,3233,401,16,832,2017,3105,3216,3232,3248,1441,17,0,1680,2817,3249,3265,3264,3264,48,1,1280,2448,3249,3265,3265,3264,401,17,881,2032,3169,3264"
200,1,1,1,5,2025-12-08T23:05:45.656974Z,"3217,64,0,1040,2193,3201,3233,3233,3233,865,16,385,1824,2928,3233,3233,3233,3232,32,1,1473,2593,3217,3233,3233,3232,32,17,1104,2273,3248,3265,3265,3264,944,17,769,1921,2992,3265,3265,3264,3280,33,1,1537,2641,3232,3217,3232"
201,1,1,1,5,2025-12-08T23:05:45.759974Z,"16,1104,2208,3201,3232,3233,3232,864,17,720,1841,2896,3216,3233,3232,3216,17,17,1473,2544,3217,3232,3233,3233,49,17,1105,2193,3200,3265,3265,3265,880,17,768,1905,2945,3265,3265,3264,3265,16,1,1536,2608,3249,3233,3232,3216,48"
202,1,1,1,5,2025-12-08T23:05:45.862974Z,"1761,2721,3217,3216,3233,3233,33,1,1296,2369,3216,3233,3233,3232,305,16,929,2000,3024,3217,3233,3232,1313,17,112,1664,2704,3217,3217,3265,3264,33,17,1360,2417,3249,3264,3280,3264,305,16,1008,2081,3088,3265,3265,3232,1345,16,305"
203,1,1,1,5,2025-12-08T23:05:45.965974Z,"3184,3216,3232,3232,753,17,752,1840,2848,3216,3232,3232,2785,17,0,1488,2512,3217,3232,3232,3232,48,0,1137,2177,3152,3216,3232,3233,784,16,832,1904,2913,3264,3265,3265,2768,32,0,1537,2577,3265,3264,3265,3265,49,16,1184,2225"
204,1,1,1,5,2025-12-08T23:05:46.068974Z,"3217,3217,3232,33,0,1312,2352,3216,3232,3233,3233,193,0,977,2017,2993,3216,3233,3232,1201,17,273,1665,2673,3217,3232,3233,3232,32,17,1377,2400,3265,3264,3265,3264,193,16,1008,2065,3056,3265,3265,3265,1217,0,369,1649,2656,3264"
205,1,1,1,5,2025-12-08T23:05:46.171974Z,"3201,624,16,785,1825,2817,3217,3233,3232,2304,16,1,1505,2513,3217,3232,3232,3232,48,16,1153,2176,3137,3233,3233,3232,577,17,800,1873,2864,3265,3264,3265,2401,33,1,1552,2576,3249,3264,3265,3265,48,16,1664,2225,3169,3264,3281"
206,1,1,1,5,2025-12-08T23:05:46.275974Z,"17,0,1328,2353,3200,3232,3232,3232,80,1,992,2017,2992,3217,3217,3233,1088,17,496,1696,2689,3216,3233,3233,3233,32,16,1360,2369,3248,3265,3264,3265,97,16,1073,2112,3088,3265,3264,3265,1121,17,704,1761,3216,3233,3233,3265,576"
207,1,1,1,5,2025-12-08T23:05:46.379974Z,"1425,2401,3201,3217,3233,3233,64,16,1024,2048,3009,3217,3233,3232,1025,32,657,1713,2704,3216,3232,3232,3233,33,0,1376,2401,3217,3233,3233,3264,64,16,1088,2128,3088,3265,3265,3264,1057,17,720,1777,2769,3233,3216,3232,481,16,913"
208,1,1,1,5,2025-12-08T23:05:46.483974Z,"3200,3233,3233,3232,49,1,1025,2049,3009,3216,3232,3233,960,17,688,1728,2720,3216,3233,3232,3233,32,0,1473,2401,3217,3233,3233,3233,65,16,1104,2129,3089,3265,3264,3265,1008,16,752,1809,2801,3264,3233,3232,433,17,928,1968,2945"
209,1,1,1,5,2025-12-08T23:05:46.586974Z,"3217,3232,49,16,1073,2081,3025,3216,3232,3232,912,17,720,1745,2721,3216,3232,3233,3233,32,0,1424,2416,3217,3232,3232,3232,48,16,1104,2128,3088,3265,3265,3265,945,16,769,1824,2801,3264,3264,3216,3072,32,0,1425,2417,3216,3233"
210,1,1,1,5,2025-12-08T23:05:46.688974Z,"1520,49,0,1088,2097,3041,3233,3232,3232,865,17,736,1777,2752,3233,3233,3233,3216,16,0,1457,2449,3217,3216,3232,3233,49,1,1120,2112,3120,3265,3265,3280,880,16,800,1841,2817,3264,3265,3265,3248,16,1,1457,2464,3249,3264,3265"
211,1,1,1,5,2025-12-08T23:05:46.791974Z,"16,288,1616,2593,3217,3233,3232,3232,32,17,1297,2288,3200,3232,3233,3232,288,16,945,1969,2912,3217,3232,3232,1313,16,368,1632,2640,3264,3265,3264,3265,49,1,1360,2352,3248,3265,3265,3264,304,0,944,1952,2912,3265,3265,3265,1328"
212,1,1,1,5,2025-12-08T23:05:46.894974Z,"1200,2161,3073,3233,3233,3232,737,16,785,1793,2752,3217,3233,3233,2640,17,1,1488,2464,3216,3232,3232,3233,48,0,1137,2129,3088,3233,3232,3265,753,17,848,1873,2832,3265,3281,3265,2752,32,1,1745,2496,3217,3233,3233,3232,48,0"
213,1,1,1,5,2025-12-08T23:05:46.997974Z,"2673,3232,3232,3232,3233,32,1,1345,2320,3217,3232,3233,3233,177,17,993,1985,2929,3233,3233,3233,1185,17,560,1664,2625,3216,3232,3233,3281,32,0,1393,2384,3248,3265,3265,3264,176,16,1040,2048,3025,3265,3265,3264,1216,16,705,1728"
214,1,1,1,5,2025-12-08T23:05:47.100974Z,"3232,3233,3232,624,17,816,1824,2784,3233,3232,3232,2289,17,0,1521,2481,3216,3232,3232,3233,48,1,1184,2176,3088,3232,3217,3232,593,33,881,1888,2848,3264,3265,3264,2256,32,96,1568,2545,3232,3232,3232,3233,49,17,1232,2224,3152"
215,1,1,1,5,2025-12-08T23:05:47.202974Z,"3232,3232,528,16,832,1825,2784,3216,3233,3232,1936,16,1,1504,2480,3217,3233,3232,3233,33,17,1184,2176,3089,3232,3232,3233,465,16,848,1872,2832,3264,3265,3265,1953,33,16,1568,2545,3249,3264,3233,3232,49,16,1232,2241,3169,3265"
216,1,1,1,5,2025-12-08T23:05:47.305974Z,"2097,33,17,1344,2337,3217,3233,3232,3233,49,0,1025,2049,3009,3232,3232,3233,944,16,689,1728,2721,3216,3232,3232,3232,32,1,1360,2369,3216,3265,3264,3264,49,16,1104,2144,3121,3264,3265,3232,848,17,689,1776,2769,3265,3264,3264"
217,1,1,1,5,2025-12-08T23:05:47.408974Z,"17,816,1857,2848,3232,3232,3232,1424,17,17,1601,2608,3217,3232,3233,3233,33,0,1264,2289,3216,3232,3232,3233,368,16,912,1953,2961,3232,3233,3280,1457,16,257,1680,2688,3265,3264,3265,3264,33,16,1280,2304,3249,3264,3265,3265,384"
218,1,1,1,5,2025-12-08T23:05:47.511974Z,"1536,2480,3217,3233,3232,3232,48,0,1105,2129,3088,3232,3232,3233,816,16,753,1793,2784,3216,3233,3233,2944,33,1,1457,2480,3217,3232,3280,3264,48,17,1168,2192,3153,3264,3280,3265,848,17,816,1857,2848,3264,3264,3265,2993,33,1"
219,1,1,1,5,2025-12-08T23:05:47.614974Z,"2977,3185,3232,3233,1296,16,304,1632,2609,3232,3232,3233,3233,32,0,1296,2288,3200,3232,3232,3233,256,0,960,1968,2929,3216,3217,3233,1185,16,497,1697,2689,3264,3265,3265,3265,49,1,1345,2353,3216,3233,3265,3265,288,16,1024,2048"
220,1,1,1,5,2025-12-08T23:05:47.718974Z,"3217,3233,3232,49,16,1153,2145,3073,3217,3232,3233,721,16,800,1809,2769,3216,3233,3232,2529,32,17,1489,2465,3217,3233,3233,3232,48,17,1217,2209,3152,3265,3264,3264,753,16,865,1888,3216,3233,3233,3265,225,16,1040,2049,2992,3264"
221,1,1,1,5,2025-12-08T23:05:47.821974Z,"3232,49,1,1152,2144,3072,3217,3233,3248,657,17,817,1825,2784,3216,3232,3232,2368,16,1,1504,2480,3217,3232,3232,3232,48,17,1185,2208,3136,3280,3265,3265,705,16,896,1904,2864,3217,3232,3249,2272,32,97,1568,2545,3248,3265,3264"
222,1,1,1,5,2025-12-08T23:05:47.925974Z,"16,688,1680,2640,3216,3217,3232,3232,33,0,1360,2336,3217,3232,3233,3217,97,1,1024,2016,2945,3216,3232,3233,1104,17,17,1585,2561,3265,3265,3281,3281,48,16,1425,2416,3249,3265,3233,1329,16,0,1553,2529,3249,3265,3265,3265,49"
223,1,1,1,5,2025-12-08T23:05:48.028974Z,"2081,2672,3216,3216,3233,3233,32,17,1377,2353,3216,3216,3232,3233,49,17,1040,2033,2960,3280,3232,3248,1057,64,704,1713,2673,3216,3265,3264,3264,32,1,1440,2417,3249,3264,3281,3265,64,16,1104,2096,3024,3264,3265,3265,1056,17,752"
224,1,1,1,5,2025-12-08T23:05:48.130974Z,"3025,3216,3233,3232,3216,33,1,1377,2337,3217,3217,3233,3232,80,16,1056,2033,2960,3232,3233,3233,961,16,672,1680,2657,3232,3249,3249,3280,33,16,1440,2416,3248,3264,3281,3264,49,0,1088,2097,3024,3265,3264,3264,993,16,768,1777"
225,1,1,1,5,2025-12-08T23:05:48.233974Z,"3232,3232,3265,448,16,913,1904,2832,3216,3232,3233,1489,17,177,1585,2529,3233,3249,3233,3233,33,1,1248,2224,3137,3200,3232,3216,401,33,993,1969,2912,3265,3264,3265,1585,17,272,1632,2560,3264,3249,3233,3233,64,32,1281,2257,3169"
226,1,1,1,5,2025-12-08T23:05:48.335974Z,"3201,3233,369,16,928,1937,2881,3280,3232,3232,1408,17,304,1616,2576,3216,3217,3233,3233,33,1,1264,2256,3168,3233,3233,3233,337,1,992,2001,2960,3265,3248,3248,1425,32,480,1649,2656,3217,3233,3233,3264,49,0,1329,2320,3217,3232"
227,1,1,1,5,2025-12-08T23:05:48.437974Z,"3233,129,0,945,1952,2880,3217,3232,3233,1344,0,432,1617,2592,3233,3232,3232,3232,33,0,1296,2273,3169,3217,3217,3232,81,0,976,2001,2929,3265,3264,3265,1376,16,641,1697,2720,3217,3216,3232,3280,33,0,1361,2336,3248,3264,3264"
228,1,1,1,5,2025-12-08T23:05:48.540974Z,"17,1,1472,2417,3233,3233,3232,3216,48,16,1153,2129,3040,3216,3232,3249,769,33,832,1824,2752,3216,3232,3233,2688,33,17,1488,2480,3248,3264,3264,3281,64,17,1216,2209,3120,3264,3264,3264,768,1,880,1856,2785,3264,3265,3264,2753"
229,1,1,1,5,2025-12-08T23:05:48.643974Z,"880,1936,2848,3232,3217,3217,1201,17,656,1649,2593,3217,3233,3232,3233,33,1,1328,2305,3185,3265,3264,3232,176,1,1009,2049,2913,3232,3265,3264,1217,0,704,1729,2672,3281,3264,3233,3233,32,16,1393,2353,3249,3265,3280,3265,193,17"
230,1,1,1,5,2025-12-08T23:05:48.746974Z,"2544,3216,3185,3232,3232,48,1,1169,2112,3008,3216,3217,3217,625,16,865,1841,2769,3217,3233,3232,2272,17,0,1489,2448,3201,3233,3232,3232,32,1,1249,2225,3120,3264,3264,3249,640,17,912,1888,2816,3265,3264,3264,2256,32,209,1568"
231,1,1,1,5,2025-12-08T23:05:48.848974Z,"3248,3217,3233,3232,33,1,1200,2160,3057,3232,3232,3232,561,17,864,1840,2769,3216,3233,3232,2080,17,144,1536,2480,3200,3232,3233,3233,48,0,1232,2209,3105,3265,3264,3264,577,16,929,1936,2864,3264,3281,3280,2177,33,336,1601,2545"
232,1,1,1,5,2025-12-08T23:05:48.951974Z,"3233,3233,1041,0,689,1697,2624,3217,3233,3233,3232,32,1,1392,2336,3217,3216,3216,3233,49,1,1057,2033,2945,3217,3232,3232,992,16,784,1777,2721,3249,3265,3265,3248,32,17,1425,2352,3217,3265,3265,3264,48,16,1136,2097,2992,3264"
233,1,1,1,5,2025-12-08T23:05:49.055974Z,"3233,33,0,1248,2192,3089,3249,3233,3233,432,16,929,1873,2800,3217,3232,3232,1521,16,272,1552,2512,3216,3248,3233,3233,32,0,1248,2241,3136,3265,3265,3265,448,0,960,1937,3216,3233,3265,3265,49,16,1137,2113,3024,3264,3297,3296"
234,1,1,1,5,2025-12-08T23:05:49.158974Z,"336,1249,2193,3089,3217,3233,3232,369,17,928,1889,2800,3201,3232,3233,1392,17,225,1584,2529,3217,3232,3233,3233,33,1,1233,2208,3137,3249,3280,3265,368,16,993,1984,2880,3216,3233,3216,1425,17,513,1648,2593,3249,3265,3264,3265,32"
235,1,1,1,5,2025-12-08T23:05:49.262974Z,"1825,2849,3233,3232,3233,2976,1,1,1457,2416,3217,3232,3233,3232,48,32,1137,2112,3024,3249,3232,3233,800,16,800,1808,2816,3233,3233,3217,2977,32,16,1505,2480,3248,3233,3233,1296,16,672,1696,2640,3233,3265,3264,3265,16,17,1360"
236,1,1,1,5,2025-12-08T23:05:49.365974Z,"3217,3232,3232,2704,33,16,1488,2448,3217,3248,3248,3233,49,17,1152,2128,3040,3216,3232,3217,721,32,817,1808,2736,3217,3232,3249,2560,33,16,1537,2497,3264,3249,3232,3233,48,16,1201,2193,3105,3264,3265,3264,753,17,864,1856,2784"
237,1,1,1,5,2025-12-08T23:05:49.468974Z,"3217,3232,176,17,1008,1985,2897,3217,3232,3232,1201,16,673,1664,2608,3216,3233,3232,3233,32,1,1344,2305,3201,3249,3232,3249,128,1,1025,2113,2961,3264,3280,3280,64,16,673,1696,2673,3264,3264,3296,3264,32,16,1409,2384,3248,3264"
238,1,1,1,5,2025-12-08T23:05:49.571974Z,"1441,16,1,1520,2465,3216,3217,3233,3232,48,1,1200,2177,3088,3248,3233,3232,609,16,865,1857,2801,3216,3233,3232,2177,17,65,1536,2528,3281,3264,3264,3264,33,33,1217,2192,3105,3265,3264,3264,624,16,945,1937,2864,3249,3281,3265"
239,1,1,1,5,2025-12-08T23:05:49.674974Z,"1,1057,2032,2945,3232,3248,3217,1073,32,704,1696,2641,3217,3232,3232,3233,33,0,1393,2353,3200,3217,3233,3233,65,1,1072,2032,2993,3265,3265,3265,1105,17,753,1760,2656,3185,3280,3281,3265,33,1,1457,2416,3249,3265,3264,3264,48"
240,1,1,1,5,2025-12-08T23:05:49.778974Z,"1649,2497,3233,3232,3232,3232,33,17,1232,2192,3089,3216,3232,3217,496,16,897,1888,2801,3216,3233,3233,1728,16,256,1552,2512,3216,3217,3232,3265,49,17,1297,2801,3216,3233,3280,3264,17,0,1441,2432,3264,3281,3264,3264,65,17,1136"
241,1,1,1,5,2025-12-08T23:05:49.881974Z,"3216,3233,3249,3233,32,0,1248,2209,3088,3217,3232,3232,433,17,912,1888,2817,3248,3217,3217,1457,16,368,1584,2513,3216,3217,3232,3264,48,0,1312,2288,3137,3217,3232,3233,401,16,944,1920,2833,3217,3264,3265,1569,32,577,1633,2592"
242,1,1,1,5,2025-12-08T23:05:49.984974Z,"3201,3233,897,17,769,1744,2656,3217,3233,3232,3201,16,0,1441,2385,3216,3232,3232,3232,48,16,1120,2113,2977,3216,3217,3233,848,17,816,1809,2752,3264,3232,3233,3008,48,0,1489,2464,3280,3248,3265,3264,49,17,1169,2129,3041,3233"
243,1,1,1,5,2025-12-08T23:05:50.087974Z,"1265,17,17,1297,2225,3120,3232,3233,3232,304,16,960,1904,2848,3201,3185,3233,1329,16,529,1616,2545,3217,3233,3232,3232,33,0,1312,2288,3185,3265,3248,3248,272,16,1024,2000,2928,3264,3264,3280,1377,33,673,1681,2609,3264,3265,3264"
244,1,1,1,5,2025-12-08T23:05:50.190992Z,"17,832,1745,2704,3249,3232,3248,2672,49,0,1488,2433,3217,3232,3233,3233,48,16,1137,2112,3056,3264,3265,3248,736,17,912,1809,2752,3200,3248,3249,1585,17,16,1329,2305,3216,3217,3264,3249,48,32,1008,2016,2977,3232,3200,3233,640"
245,1,1,1,5,2025-12-08T23:05:50.294974Z,"1617,2449,3217,3233,3232,3232,192,17,1041,2081,3008,3232,3233,3232,1201,16,689,1728,2688,3217,3232,3233,3233,33,1,1393,2401,3217,3233,3265,3264,209,208,1553,2513,3264,3264,3265,3248,16,0,1281,2240,3153,3248,3264,3281,705,16,928"
246,2,1,2,1,2025-12-08T23:06:08.933768Z,"960,976,1008,1073,1121,1153,1169,880,928,945,976,1025,1088,1137,1153,865,912,928,945,1009,1057,1105,1137,1153,912,912,945,976,1057,1104,1153,1169,1056,1072,1072,1104,1153,1201,1248,1281,1217,1168,1169,1184,1232,1281,1312,1344,1344,1201"
247,2,1,2,1,2025-12-08T23:06:09.036768Z,"1216,1249,1297,1328,1344,1217,1120,1136,1136,1168,1233,1265,1296,1296,1072,1073,1088,1121,1168,1216,1249,1264,832,1041,1057,1072,1137,1168,1233,1249,1264,1184,1185,1184,1232,1264,1312,1345,1344,1281,1265,1264,1296,1328,1376,1409,1408,1217,1345,1312"
248,2,1,2,1,2025-12-08T23:06:09.139768Z,"1377,1408,1440,1440,1265,1249,1248,1264,1312,1345,1377,1393,1232,1217,1217,1233,1264,1312,1344,1361,1344,1184,1184,1185,1216,1248,1297,1313,1312,1169,1168,1168,1184,1232,1281,1313,1328,1216,1249,1248,1248,1296,1329,1360,1392,1377,1313,1296,1281,1312"
249,2,1,2,1,2025-12-08T23:06:09.242768Z,"1408,1393,1392,1232,1217,1232,1248,1297,1329,1344,1345,1201,1185,1185,1200,1248,1280,1313,1312,944,1152,1152,1153,1200,1233,1265,1281,1185,1121,1120,1121,1169,1201,1232,1265,1265,1201,1185,1201,1200,1249,1281,1312,1313,1152,1233,1216,1233,1249,1297"
250,2,1,2,1,2025-12-08T23:06:09.345768Z,"1280,864,881,881,913,961,1008,1057,1072,801,928,929,945,992,1040,1088,1120,1105,960,960,977,1009,1057,1105,1137,1137,897,912,912,961,1009,1072,1104,1137,1073,1089,1088,1105,1136,1200,1233,1248,1248,1216,1200,1217,1233,1281,1328,1329"
251,2,1,2,1,2025-12-08T23:06:09.448768Z,"1265,1249,1265,1281,1328,1361,1376,1377,1265,1249,1249,1280,1312,1344,1376,1377,1168,1249,1249,1265,1297,1345,1377,1377,1329,1265,1249,1264,1296,1344,1376,1408,1392,1360,1344,1345,1361,1392,1424,1441,1440,1424,1393,1376,1376,1409,1457,1456,1457,1392"
252,2,1,2,1,2025-12-08T23:06:09.552768Z,"1328,1345,1361,1393,1425,1425,1233,1297,1280,1280,1313,1344,1377,1393,1360,1265,1249,1248,1280,1313,1344,1361,1360,1249,1232,1233,1232,1264,1313,1344,1360,1297,1296,1280,1281,1313,1344,1377,1393,1376,1329,1312,1312,1329,1361,1393,1408,1376,1232,1232"
253,2,1,2,1,2025-12-08T23:06:09.655768Z,"1264,1313,1312,1329,1089,1185,1184,1184,1216,1249,1280,1296,1312,1169,1153,1152,1169,1216,1233,1264,1249,1137,1121,1121,1136,1169,1200,1216,1232,1201,1184,1168,1168,1201,1232,1265,1280,1264,1216,1201,1200,1232,1265,1296,1313,1312,1249,1233,1217,1233"
254,2,1,2,1,2025-12-08T23:06:09.759768Z,"1328,1329,1217,864,880,896,945,992,1040,1088,1104,992,992,1009,1041,1089,1137,1184,1200,1120,1104,1104,1121,1153,1216,1249,1280,1265,1120,1121,1120,1169,1217,1248,1297,1297,1264,1265,1265,1264,1313,1345,1376,1377,1360,1345,1312,1313,1360,1393"
255,2,1,2,1,2025-12-08T23:06:09.861768Z,"1409,32,912,928,945,992,1057,1089,1120,1120,1056,1057,1072,1121,1168,1200,1232,1233,1168,1169,1168,1200,1233,1280,1313,1328,1088,1233,1232,1249,1297,1360,1377,1408,1393,1377,1361,1360,1408,1440,1473,1488,1489,1472,1456,1456,1457,1472,1505,1552"
256,2,1,2,1,2025-12-08T23:06:09.964768Z,"1489,1473,1473,1489,1520,1552,1584,1569,1489,1488,1473,1488,1521,1568,1585,1585,1504,1504,1473,1472,1504,1553,1568,1601,1568,1505,1472,1472,1488,1536,1553,1584,1584,1569,1552,1536,1552,1584,1617,1632,1633,1617,1584,1569,1568,1584,1616,1633,1648,1648"
257,2,1,2,1,2025-12-08T23:06:10.068768Z,"1553,1552,1585,1617,1633,1633,1600,1537,1520,1521,1521,1568,1585,1584,1569,1504,1488,1473,1473,1520,1537,1537,1537,1297,1441,1425,1393,1441,1473,1520,1521,1505,1473,1441,1424,1441,1473,1489,1505,1488,1440,1425,1409,1409,1440,1440,1456,1441,1393,1361"
258,2,1,2,1,2025-12-08T23:06:10.171768Z,"1360,1392,1409,1392,1377,1328,1297,1296,1313,1345,1360,1376,1361,1296,1280,1265,1280,1313,1344,1360,1344,1232,1265,1248,1248,1264,1312,1281,1329,1329,1313,1281,1281,1297,1329,1360,1361,1345,1313,1296,1296,1296,1328,1361,1360,1344,1264,1248,1264,1232"
259,2,1,2,1,2025-12-08T23:06:10.275768Z,"1312,1328,1201,496,560,592,624,689,753,817,801,481,624,672,705,752,817,865,912,928,881,896,913,960,1009,1073,1105,1120,1088,1089,1105,1136,1168,1249,1265,1281,1168,1232,1232,1264,1296,1360,1409,1424,1392,1329,1345,1361,1392,1440"
260,2,1,2,1,2025-12-08T23:06:10.378768Z,"1488,1425,1457,1440,1440,1488,1536,1553,1553,1552,1504,1489,1504,1521,1568,1601,1600,1585,1553,1553,1536,1553,1600,1617,1633,1408,1569,1569,1569,1569,1616,1648,1665,1665,1632,1617,1601,1568,1616,1665,1696,1681,1665,1617,1633,1616,1632,1664,1681,1697"
261,2,1,2,1,2025-12-08T23:06:10.481768Z,"1633,1601,1600,1616,1649,1664,1681,1664,1617,1568,1584,1600,1632,1649,1665,1648,1617,1585,1584,1585,1617,1664,1633,1664,1633,1585,1569,1552,1568,1600,1616,1633,1616,1600,1553,1552,1568,1584,1617,1632,1617,1585,1552,1520,1521,1552,1568,1600,1600,1568"
262,2,1,2,1,2025-12-08T23:06:10.584768Z,"1488,1489,1521,1536,1553,1552,1473,1472,1441,1440,1457,1488,1504,1520,1472,1441,1424,1425,1441,1473,1488,1505,1488,1424,1409,1393,1408,1440,1489,1521,1520,1537,1473,1457,1473,1489,1537,1553,1569,1553,1520,1504,1504,1520,1520,1568,1585,1584,1552,1521"
263,2,1,2,1,2025-12-08T23:06:10.687768Z,"1505,1520,1552,1552,1521,1473,1440,1424,1440,1456,1473,1489,1473,1425,1408,1376,1376,1393,1408,1424,1425,1424,1344,1328,1313,1345,1392,1377,1393,1361,1345,1328,1313,1328,1360,1377,1393,1392,1345,1328,1312,1312,1328,1344,1376,1377,1361,1312,1296,1281"
264,2,1,2,1,2025-12-08T23:06:10.791768Z,"1360,1377,1361,1249,1297,1281,1280,1313,1361,1361,1377,1345,1312,1297,1296,1313,1344,1361,1377,1361,1313,1297,1296,1313,1344,1361,1392,1392,1233,1329,1328,1328,1392,1393,1424,1425,1408,1393,1376,1377,1393,1424,1457,1456,1424,1409,1393,1392,1425,1456"
265,2,1,2,1,2025-12-08T23:06:10.894768Z,"1472,1312,1408,1377,1392,1425,1457,1473,1489,1472,1424,1408,1408,1441,1472,1489,1520,1505,1456,1441,1440,1456,1489,1520,1537,1536,1424,1456,1456,1456,1489,1536,1552,1569,1537,1521,1504,1504,1521,1568,1601,1584,1585,1569,1553,1536,1552,1569,1616,1616"
266,2,1,2,1,2025-12-08T23:06:10.997768Z,"1553,1536,1505,1520,1569,1585,1600,1601,1537,1520,1505,1504,1520,1569,1569,1585,1489,1504,1488,1489,1521,1553,1568,1568,1552,1488,1473,1472,1520,1537,1569,1584,1584,1553,1521,1520,1521,1569,1584,1584,1600,1504,1488,1473,1488,1520,1553,1584,1584,1569"
267,2,1,2,1,2025-12-08T23:06:11.100768Z,"1489,1488,1505,1537,1552,1568,1536,1537,1472,1472,1488,1520,1537,1552,1521,1473,1456,1440,1456,1473,1505,1505,1504,1473,1425,1425,1425,1441,1473,1504,1520,1488,1457,1424,1425,1441,1488,1505,1520,1489,1457,1409,1409,1409,1473,1489,1505,1504,1457,1441"
268,2,1,2,1,2025-12-08T23:06:11.203768Z,"1409,1456,1473,1473,1457,1408,1392,1376,1392,1425,1441,1457,1456,1456,1393,1376,1360,1392,1424,1456,1472,1441,1392,1376,1360,1377,1425,1424,1440,1441,1424,1408,1377,1409,1440,1456,1473,1473,1456,1425,1392,1393,1425,1441,1457,1489,1472,1440,1424,1424"
269,2,1,2,1,2025-12-08T23:06:11.306768Z,"1457,1489,1488,1473,1440,1425,1408,1425,1473,1489,1505,1489,1441,1440,1409,1440,1472,1504,1504,1504,1473,1456,1440,1441,1472,1505,1521,1521,1521,1473,1473,1473,1488,1520,1553,1553,1536,1505,1473,1489,1489,1520,1536,1553,1568,1537,1504,1505,1505,1536"
270,2,1,2,1,2025-12-08T23:06:11.409768Z,"1568,1552,1520,1504,1489,1489,1520,1552,1568,1569,1552,1504,1489,1488,1520,1552,1552,1568,1553,1520,1504,1489,1504,1536,1553,1568,1553,1521,1504,1504,1505,1537,1569,1584,1584,1536,1520,1520,1521,1521,1552,1584,1585,1552,1536,1505,1505,1504,1521,1569"
271,2,1,2,1,2025-12-08T23:06:11.512768Z,"289,976,992,1008,1057,1104,1136,1169,1169,1152,1153,1168,1185,1233,1280,1296,1313,1297,1280,1280,1281,1329,1393,1409,1408,1361,1360,1360,1360,1408,1441,1473,1489,1473,1424,1440,1409,1441,1472,1472,1505,1488,1457,1457,1440,1441,1505,1536,1537,1568"
272,2,1,2,1,2025-12-08T23:06:11.616768Z,"1488,1489,1489,1521,1552,1585,1600,1440,1536,1553,1537,1585,1616,1649,1665,1665,1617,1633,1601,1648,1664,1696,1728,1712,1681,1665,1648,1664,1681,1729,1760,1760,1697,1696,1664,1665,1680,1713,1712,1697,1632,1584,1601,1585,1649,1632,1664,1648,1616,1584"
273,2,1,2,1,2025-12-08T23:06:11.719768Z,"1537,1568,1584,1568,1568,1521,1521,1489,1488,1505,1537,1553,1553,1521,1473,1472,1457,1473,1505,1521,1537,1520,1488,1456,1457,1456,1488,1489,1489,1536,1520,1488,1472,1456,1489,1520,1537,1536,1488,1457,1425,1425,1457,1488,1521,1536,1520,1489,1473,1456"
274,2,1,2,1,2025-12-08T23:06:11.823768Z,"1505,1505,1521,1505,1489,1456,1456,1472,1505,1537,1552,1537,1520,1488,1489,1488,1536,1553,1568,1585,1585,1537,1520,1520,1536,1585,1616,1633,1600,1584,1552,1553,1569,1600,1632,1649,1632,1616,1568,1584,1600,1648,1665,1680,1664,1633,1616,1600,1617,1649"
275,2,1,2,1,2025-12-08T23:06:11.926768Z,"1665,1648,1552,1536,1536,1552,1584,1617,1616,1617,1585,1569,1553,1552,1584,1616,1616,1617,1585,1568,1553,1553,1568,1585,1617,1617,1584,1569,1552,1536,1569,1600,1616,1632,1616,1568,1552,1520,1521,1537,1568,1600,1601,1569,1536,1521,1520,1520,1537,1568"
276,2,1,2,1,2025-12-08T23:06:12.030768Z,"720,1152,1152,1168,1201,1249,1281,1312,1249,1232,1233,1216,1265,1313,1344,1361,1345,1329,1312,1313,1329,1361,1376,1393,1377,1376,1345,1345,1344,1393,1425,1440,1441,1424,1393,1360,1360,1393,1424,1425,1456,1425,1393,1376,1377,1392,1424,1441,1440,1425"
277,2,1,2,1,2025-12-08T23:06:12.133768Z,"1344,1344,1376,1393,1408,1425,1392,1361,1345,1329,1360,1376,1393,1408,1393,1360,1345,1329,1345,1360,1393,1392,1393,1361,1345,1328,1328,1345,1377,1424,1424,1393,1377,1345,1360,1361,1377,1408,1409,1393,1376,1361,1360,1377,1408,1440,1456,1441,1425,1393"
278,2,1,2,1,2025-12-08T23:06:12.237768Z,"1377,1409,1457,1457,1441,1425,1392,1393,1393,1425,1457,1473,1472,1441,1425,1424,1424,1457,1473,1505,1505,1489,1473,1440,1440,1472,1505,1520,1537,1553,1520,1488,1488,1504,1536,1536,1568,1537,1520,1521,1505,1520,1568,1584,1601,1600,1568,1552,1537,1521"
279,2,1,2,1,2025-12-08T23:06:12.340768Z,"1584,1600,1584,1553,1537,1521,1521,1568,1585,1585,1600,1585,1552,1520,1520,1553,1585,1600,1600,1585,1553,1536,1536,1537,1569,1585,1601,1584,1553,1553,1552,1552,1584,1601,1616,1616,1585,1568,1537,1537,1569,1600,1616,1617,1584,1569,1553,1536,1552,1552"
280,2,1,2,1,2025-12-08T23:06:12.443768Z,"1585,1457,1440,1441,1424,1456,1489,1504,1521,1473,1472,1456,1441,1457,1488,1504,1521,1521,1505,1488,1457,1457,1488,1489,1473,1521,641,1313,1312,1328,1361,1392,1425,1425,1409,1361,1361,1344,1377,1409,1441,1457,1456,1425,1408,1393,1408,1425,1456,1473"
281,2,1,2,1,2025-12-08T23:06:12.548768Z,"1408,1377,1377,1424,1424,1440,1456,1456,1441,1409,1392,1393,1441,1472,1489,1505,1472,1473,1456,1441,1488,1505,1536,1552,1568,1537,1520,1505,1520,1569,1600,1633,1649,1617,1585,1584,1616,1648,1681,1696,1665,1648,1633,1617,1632,1665,1697,1697,1665,1633"
282,2,1,2,1,2025-12-08T23:06:12.651768Z,"1568,1568,1600,1601,1617,1585,1537,1505,1504,1520,1536,1552,1553,1537,1505,1473,1457,1456,1489,1473,1520,1520,1473,1456,1441,1440,1457,1473,1489,1520,1505,1425,1440,1440,1456,1441,1505,1521,1505,1472,1456,1425,1441,1489,1505,1520,1520,1504,1473,1456"
283,2,1,2,1,2025-12-08T23:06:12.754768Z,"1472,1488,1504,1489,1489,1457,1441,1441,1473,1504,1521,1537,1521,1489,1473,1456,1488,1537,1553,1553,1553,1536,1521,1520,1536,1553,1585,1600,1600,1601,1584,1552,1568,1601,1617,1632,1665,1648,1617,1600,1617,1617,1649,1648,1680,1664,1648,1601,1617,1632"
284,2,1,2,1,2025-12-08T23:06:12.857768Z,"1681,1680,1649,1600,1601,1601,1616,1616,1665,1681,1664,1632,1616,1600,1601,1617,1648,1664,1680,1633,1600,1600,1584,1600,1633,1648,1648,1601,1601,1600,1584,1601,1633,1649,1648,1632,1600,1601,1568,1568,1585,1616,1632,1616,1585,1553,1537,1536,1553,1585"
285,2,1,2,1,2025-12-08T23:06:12.960768Z,"1552,1360,1344,1329,1360,1361,1393,1408,1424,1392,1376,1361,1344,1377,1409,1440,1425,1425,1392,1376,1377,1377,1408,1425,1441,1441,1345,1344,1329,1345,1376,1377,1408,1425,1393,1376,1376,1360,1392,1425,1456,1472,1456,1409,1392,1409,1425,1441,1472,1489"
286,2,1,2,1,2025-12-08T23:06:13.063768Z,"1425,1409,1393,1424,1457,1472,1488,1488,1440,1425,1424,1424,1456,1488,1505,1520,1472,1441,1440,1441,1457,1488,1505,1505,1488,1456,1440,1441,1456,1488,1521,1537,1521,1489,1473,1472,1472,1504,1521,1536,1537,1505,1489,1473,1457,1489,1537,1536,1552,1521"
287,2,1,2,1,2025-12-08T23:06:13.166768Z,"1440,1456,1472,1520,1521,1520,1488,1456,1441,1440,1456,1488,1505,1521,1505,1488,1456,1440,1457,1488,1504,1520,1520,1488,1456,1457,1456,1489,1505,1552,1552,1536,1504,1489,1472,1504,1536,1552,1553,1537,1505,1504,1504,1520,1521,1553,1568,1568,1536,1520"
288,2,1,2,1,2025-12-08T23:06:13.269768Z,"1505,1520,1552,1553,1536,1520,1488,1473,1504,1520,1553,1552,1553,1521,1505,1488,1489,1504,1536,1553,1552,1537,1520,1504,1489,1504,1552,1568,1569,1569,1537,1504,1520,1521,1553,1569,1584,1584,1553,1536,1521,1520,1536,1569,1585,1584,1569,1521,1521,1505"
289,2,1,2,1,2025-12-08T23:06:13.372768Z,"1553,1552,1553,1521,1489,1472,1473,1488,1520,1537,1553,1521,1488,1473,1457,1472,1489,1520,1521,1520,1473,1456,1440,1441,1489,1488,1505,1504,1488,1472,1456,1425,1440,1488,1504,1488,1472,1440,1425,1425,1424,1456,1472,1473,1489,1456,1440,1424,1424,1456"
290,2,1,2,1,2025-12-08T23:06:13.476768Z,"1488,1457,1440,1424,1441,1408,1456,1489,1521,1488,1473,1440,1425,1441,1472,1504,1520,1537,1504,1488,1473,1457,1489,1520,1536,1552,1520,1425,1409,1425,1440,1473,1489,1504,1489,1472,1456,1456,1472,1489,1520,1520,1521,1488,1472,1440,1440,1472,1489,1505"
291,2,1,2,1,2025-12-08T23:06:13.580768Z,"1424,1392,1360,1392,1392,1441,1441,1409,1393,1361,1360,1361,1377,1409,1425,1424,1409,1360,1344,1345,1377,1393,1424,1424,1409,1377,1361,1344,1361,1393,1425,1456,1393,1377,1360,1345,1360,1393,1408,1424,1425,1393,1376,1360,1376,1408,1425,1440,1440,1425"
292,2,1,2,1,2025-12-08T23:06:13.683768Z,"1360,1377,1409,1441,1441,1440,1393,1377,1376,1376,1409,1441,1457,1457,1441,1425,1409,1409,1424,1457,1473,1488,1472,1456,1441,1425,1440,1473,1505,1520,1504,1505,1456,1472,1489,1520,1537,1569,1568,1552,1521,1505,1505,1521,1553,1584,1584,1568,1536,1505"
293,2,1,2,1,2025-12-08T23:06:13.786768Z,"1505,1552,1568,1569,1552,1521,1504,1489,1504,1552,1569,1584,1569,1537,1521,1504,1505,1536,1552,1569,1584,1552,1505,1504,1504,1521,1569,1568,1585,1569,1552,1552,1520,1536,1552,1616,1600,1585,1552,1537,1520,1536,1569,1585,1601,1601,1568,1552,1521,1520"
294,2,1,2,1,2025-12-08T23:06:13.889768Z,"1569,1568,1569,1537,1521,1505,1504,1536,1521,1553,1568,1553,1504,1488,1472,1520,1521,1536,1553,1521,1488,1489,1472,1457,1488,1520,1520,1504,1472,1473,1456,1456,1489,1521,1505,1520,1488,1473,1441,1440,1457,1488,1489,1504,1489,1440,1425,1441,1440,1472"
295,2,1,2,2,2025-12-08T23:06:19.552012Z,"816,865,897,929,800,688,737,752,784,849,912,944,977,736,752,784,817,880,960,993,1041,544,801,817,849,928,993,1041,1089,864,961,976,993,1041,1120,1168,1201,1233,1089,1105,1121,1153,1217,1280,1281,1328,1057,1184,1168,1185"
296,2,1,2,2,2025-12-08T23:06:19.655012Z,"1296,1329,1345,1088,1072,1088,1120,1153,1200,1232,1249,961,1024,1024,1041,1072,1121,1153,1184,1185,993,993,992,1025,1072,1104,1136,1120,1073,1056,1057,1072,1105,1152,1169,1185,1121,1137,1104,1136,1136,1185,1217,1233,1233,1185,1168,1152,1169,1201"
297,2,1,2,2,2025-12-08T23:06:19.758012Z,"1248,1217,1136,1120,1120,1137,1168,1200,1216,1201,1120,1104,1104,1120,1136,1169,1185,1184,1025,1088,1072,1073,1088,1137,1153,1168,1024,976,976,977,1009,1057,1089,1121,1120,1073,1104,1105,1121,1152,1201,1232,1249,1281,1232,1233,1232,1281,1329,1376"
298,2,1,2,2,2025-12-08T23:06:19.861012Z,"960,1153,1153,1184,1233,1281,1329,1361,1329,1329,1328,1345,1376,1409,1440,1457,1456,1424,1408,1409,1425,1457,1489,1504,1505,1472,1473,1440,1441,1472,1520,1553,1552,1521,1505,1473,1472,1488,1537,1553,1569,1537,1521,1488,1488,1504,1537,1536,1552,1568"
299,2,1,2,2,2025-12-08T23:06:19.964012Z,"1489,1489,1520,1568,1584,1600,1600,1584,1568,1569,1585,1617,1664,1680,1681,1665,1648,1649,1649,1681,1712,1745,1761,1744,1712,1680,1697,1745,1745,1777,1793,1808,1776,1761,1745,1760,1793,1825,1840,1825,1809,1776,1761,1761,1793,1809,1809,1809,1760,1745"
300,2,1,2,2,2025-12-08T23:06:20.067012Z,"1712,1729,1760,1777,1777,1728,1728,1664,1648,1696,1697,1728,1728,1697,1664,1632,1617,1633,1664,1665,1680,1664,1616,1600,1585,1585,1617,1633,1649,1648,1520,1457,1440,1456,1488,1520,1553,1568,1537,1520,1504,1489,1505,1552,1568,1600,1584,1552,1537,1520"
301,2,1,2,2,2025-12-08T23:06:20.171012Z,"1552,1569,1584,1568,1553,1505,1521,1521,1537,1569,1584,1569,1552,1520,1489,1488,1505,1521,1520,1552,1520,1472,1456,1457,1473,1488,1505,1504,1473,1456,1392,1409,1425,1441,1457,1473,1456,1424,1393,1360,1361,1392,1409,1424,1425,1392,1328,1312,1313,1328"
302,2,1,2,2,2025-12-08T23:06:20.275012Z,"1360,1344,1312,1280,1265,1280,1329,1329,1344,1345,1312,1281,1280,1265,1297,1296,1329,1345,1329,1296,1280,1281,1297,1329,1361,1361,1360,1249,1216,1233,1281,1297,1344,1377,1377,1345,1329,1329,1328,1360,1393,1441,1457,1424,1408,1392,1408,1441,1505,1521"
303,2,1,2,2,2025-12-08T23:06:20.378012Z,"1456,1457,1457,1488,1504,1536,1553,1568,1552,1537,1520,1553,1584,1584,1617,1617,1585,1568,1553,1553,1569,1600,1633,1648,1617,1601,1568,1584,1584,1601,1649,1649,1648,1056,1345,1345,1376,1408,1473,1521,1520,1504,1472,1473,1441,1488,1505,1553,1585,1569"
304,2,1,2,2,2025-12-08T23:06:20.481012Z,"1489,1505,1521,1552,1569,1584,1569,1537,1536,1505,1537,1584,1600,1601,1600,1552,1536,1520,1536,1568,1600,1617,1616,1585,1569,1552,1536,1569,1600,1648,1649,1632,1601,1585,1585,1601,1648,1648,1665,1648,1616,1601,1585,1584,1601,1617,1616,1633,1601,1552"
305,2,1,2,2,2025-12-08T23:06:20.585012Z,"1553,1569,1601,1601,1600,1569,1553,1568,1552,1584,1617,1664,1665,1648,1632,1617,1616,1664,1696,1744,1761,1744,1713,1728,1713,1713,1777,1777,1792,1792,1777,1744,1728,1728,1760,1776,1808,1808,1776,1744,1713,1712,1713,1729,1761,1744,1696,1681,1632,1648"
306,2,1,2,2,2025-12-08T23:06:20.688012Z,"1681,1648,1632,1584,1568,1521,1504,1521,1552,1537,1520,1489,1440,1409,1392,1408,1425,1440,1457,1425,1376,1360,1361,1345,1392,1393,1424,1409,1392,1393,1392,1377,1425,1472,1489,1473,1473,1473,1457,1457,1488,1520,1536,1552,1521,1505,1520,1520,1504,1552"
307,2,1,2,2,2025-12-08T23:06:20.791012Z,"1568,1409,1265,1265,1265,1297,1344,1392,1408,1393,1376,1377,1361,1392,1425,1456,1473,1488,1472,1456,1425,1424,1456,1488,1521,1521,1504,1488,1456,1456,1505,1568,1553,1568,1553,1521,1504,1489,1504,1536,1552,1568,1536,1520,1489,1473,1504,1521,1552,1553"
308,2,1,2,2,2025-12-08T23:06:20.894012Z,"1424,1409,1393,1392,1440,1456,1473,1504,1457,1424,1408,1408,1425,1456,1489,1489,1473,1440,1424,1408,1424,1456,1473,1488,1472,1440,1424,1392,1409,1440,1489,1504,1488,1472,1440,1424,1425,1440,1472,1488,1488,1472,1425,1409,1392,1409,1472,1489,1505,1489"
309,2,1,2,2,2025-12-08T23:06:20.997012Z,"1392,1392,1408,1441,1457,1472,1456,1425,1392,1392,1393,1424,1441,1457,1457,1424,1377,1376,1360,1393,1408,1424,1425,1392,1361,1328,1313,1329,1360,1377,1393,1377,1312,1297,1281,1280,1296,1313,1312,1313,1264,1233,1185,1185,1217,1249,1248,1248,1216,1185"
310,2,1,2,2,2025-12-08T23:06:21.100012Z,"1152,1168,1184,1184,1185,1152,1136,1104,1105,1137,1169,1185,1184,1169,1137,1120,1104,1136,1169,1201,1217,1216,1200,1184,1169,1200,1249,1281,1328,1312,1313,1296,1296,1296,1345,1393,1424,1440,1424,1409,1409,1409,1425,1472,1488,1520,1520,1489,1473,1457"
311,2,1,2,2,2025-12-08T23:06:21.203012Z,"1505,1521,1536,1536,1520,1456,1457,1489,1505,1537,1553,1536,1505,1473,1457,1457,1473,1521,1520,1520,1488,1457,1441,1425,1440,1457,1472,1473,1472,1440,1408,1393,1392,1425,1457,1457,1440,1408,1376,1360,1361,1361,1408,1409,1409,1393,1361,1329,1329,1345"
312,2,1,2,2,2025-12-08T23:06:21.307012Z,"1393,1392,1360,1344,1328,1312,1344,1392,1392,1408,1377,1361,1345,1344,1360,1392,1425,1440,1440,1409,1392,1376,1392,1425,1457,1473,1472,1456,1456,1441,1441,1473,1504,1520,1553,1520,1504,1488,1473,1505,1504,1536,1536,1520,1520,1489,1489,1504,1536,1569"
313,2,1,2,2,2025-12-08T23:06:21.410012Z,"1409,1392,1409,1392,1424,1457,1489,1504,1472,1441,1425,1441,1456,1489,1520,1536,1521,1504,1488,1473,1473,1520,1552,1569,1568,1536,1520,1488,1505,1553,1585,1600,1584,1569,1537,1520,1505,1520,1552,1569,1553,1537,1425,1408,1424,1424,1441,1473,1488,1489"
314,2,1,2,2,2025-12-08T23:06:21.513012Z,"1344,1312,1344,1392,1393,1409,1408,1024,1009,1009,1041,1088,1137,1168,1184,241,624,657,721,784,833,896,945,336,337,401,464,528,609,705,753,816,240,304,385,465,561,673,752,817,145,256,352,449,577,705,816,897,33,304"
315,2,1,2,2,2025-12-08T23:06:21.615012Z,"544,625,768,880,977,1024,352,448,560,689,816,945,1072,1152,33,545,657,769,896,1025,1168,1264,736,657,768,881,1008,1137,1265,1392,1457,1057,1152,1248,1328,1457,1584,1680,1761,1169,1520,1569,1648,1745,1888,1969,2016,1921,1921,1968"
316,2,1,2,2,2025-12-08T23:06:21.718012Z,"2096,2193,2240,2288,2017,2113,2145,2176,2224,2305,2369,2400,2417,2257,2288,2304,2336,2400,2481,2512,2496,2417,2433,2449,2464,2513,2577,2592,2609,2641,2609,2608,2608,2656,2704,2720,2721,2720,2689,2673,2673,2672,2721,2736,2769,2752,2720,2672,2657,2673"
317,2,1,2,2,2025-12-08T23:06:21.821012Z,"2704,2688,2673,2608,2576,2545,2545,2593,2609,2593,2577,2369,2496,2464,2465,2481,2497,2512,2512,2480,2385,2385,2352,2368,2400,2401,2401,2384,2321,2321,2304,2289,2304,2320,2352,2336,2273,2240,2224,2209,2225,2241,2256,2240,2193,2144,2144,2128,2113,2128"
318,2,1,2,2,2025-12-08T23:06:21.924012Z,"2112,1872,1872,1857,1841,1857,1872,1889,1904,1873,1824,1793,1792,1793,1824,1840,1840,1840,1793,1776,1761,1761,1761,1776,1808,1808,768,1649,1632,1680,1681,1712,1745,1760,1728,1728,1697,1681,1696,1728,1776,1776,1777,1776,1760,1761,1776,1808,1825,1872"
319,2,1,2,2,2025-12-08T23:06:22.027012Z,"1760,1760,1744,1760,1792,1824,1840,1841,1825,1792,1761,1793,1777,1824,1856,1856,1825,1792,1777,1761,1792,1809,1808,1824,1808,1776,1745,1728,1760,1777,1808,1808,1793,1760,1729,1713,1696,1729,1728,1729,1728,1697,1681,1664,1648,1665,1680,1712,1712,1680"
320,2,1,2,2,2025-12-08T23:06:22.130012Z,"1568,1569,1601,1632,1633,1648,1617,1585,1552,1553,1553,1584,1617,1632,1617,1584,1568,1553,1552,1585,1616,1617,1616,1601,1568,1552,1552,1569,1600,1648,1648,1633,1617,1585,1568,1584,1616,1648,1648,1616,1585,1552,1568,1569,1601,1616,1633,1648,1633,1585"
321,2,1,2,2,2025-12-08T23:06:22.233012Z,"1537,1568,1601,1601,1585,1568,1537,1520,1504,1536,1568,1568,1584,1553,1521,1489,1489,1504,1536,1552,1568,1552,1521,1488,1489,1505,1537,1552,1568,1585,1553,1536,1521,1520,1553,1569,1600,1601,1553,1520,1504,1489,1504,1537,1584,1584,1569,1537,1505,1504"
322,2,1,2,2,2025-12-08T23:06:22.337012Z,"1521,1536,1536,1504,1473,1440,1440,1440,1472,1488,1489,1473,1440,1408,1392,1393,1425,1440,1457,1440,1408,1377,1360,1360,1377,1409,1424,1440,1424,1393,1376,1376,1393,1425,1456,1456,1457,1425,1376,1376,1392,1440,1472,1472,1457,1440,1408,1392,1409,1441"
323,2,1,2,2,2025-12-08T23:06:22.440012Z,"1456,1440,1409,1393,1377,1393,1424,1457,1456,1456,1408,1392,1376,1393,1409,1441,1456,1456,1408,1392,1377,1376,1392,1425,1457,1456,1425,1392,1392,1377,1392,1425,1456,1456,1457,1425,1392,1361,1377,1409,1424,1456,1456,1425,1392,1377,1376,1408,1441,1457"
324,2,1,2,2,2025-12-08T23:06:22.543012Z,"1393,1393,1361,1361,1376,1409,1425,1425,1393,1376,1360,1345,1361,1392,1425,1425,1408,1377,1360,1345,1361,1393,1409,1425,1408,1376,1345,1345,1345,1345,1392,1425,1441,1393,1377,1360,1345,1377,1408,1424,1424,1409,1376,1360,1345,1360,1392,1424,1425,1424"
325,2,1,2,2,2025-12-08T23:06:22.646012Z,"1344,1328,1345,1376,1393,1409,1393,1360,1345,1328,1328,1376,1392,1408,1409,1377,1345,1329,1328,1344,1392,1408,1409,1392,1360,1329,1328,1361,1376,1409,1425,1409,1377,1345,1344,1345,1377,1377,1392,1377,1361,1345,1329,1328,1345,1376,1361,1393,1361,1328"
326,2,1,2,2,2025-12-08T23:06:22.749012Z,"1297,1313,1344,1361,1377,1345,1312,1297,1296,1329,1360,1377,1392,1377,1360,1344,1345,1361,1392,1408,1441,1425,1409,1377,1376,1376,1409,1440,1489,1488,1456,1440,1425,1424,1440,1473,1473,1488,1457,1441,1441,1425,1441,1473,1504,1504,1504,1473,1440,1440"
327,2,1,2,2,2025-12-08T23:06:22.853012Z,"1472,1472,1489,1472,1441,1408,1393,1392,1441,1456,1473,1457,1440,1392,1376,1376,1409,1425,1440,1457,1424,1393,1376,1361,1392,1424,1424,1457,1456,1425,1409,1393,1408,1440,1473,1473,1456,1441,1408,1409,1425,1457,1488,1504,1489,1456,1440,1425,1441,1456"
328,2,1,2,2,2025-12-08T23:06:22.956012Z,"1488,1457,1440,1425,1408,1425,1456,1473,1488,1489,1456,1440,1408,1408,1441,1473,1488,1488,1456,1440,1408,1409,1440,1456,1473,1488,1473,1440,1424,1425,1424,1456,1488,1504,1488,1440,1408,1409,1408,1425,1457,1472,1473,1441,1425,1408,1424,1440,1472,1489"
329,2,1,2,2,2025-12-08T23:06:23.059012Z,"1264,1265,1264,1265,1297,1329,1361,1376,1360,1328,1328,1312,1344,1376,1393,1425,1409,1393,1361,1360,1360,1393,1441,1457,1456,1424,1408,1393,1425,1441,1488,1521,1520,1489,1472,1456,1441,1473,1505,1537,1536,1536,1504,1473,1472,1473,1505,1536,1552,1537"
330,2,1,2,2,2025-12-08T23:06:23.162012Z,"1441,1457,1441,1472,1488,1505,1504,1457,1441,1424,1408,1440,1456,1489,1472,1441,1425,1392,1392,1408,1441,1456,1456,1457,1424,1393,1393,1393,1456,1472,1489,1488,1457,1440,1425,1424,1457,1489,1504,1504,1488,1457,1441,1440,1456,1489,1520,1521,1504,1473"
331,2,1,2,2,2025-12-08T23:06:23.265012Z,"1440,1456,1489,1505,1504,1489,1457,1425,1425,1440,1473,1488,1505,1489,1456,1440,1425,1440,1457,1488,1505,1489,1473,1441,1424,1425,1457,1472,1520,1521,1505,1473,1456,1440,1441,1472,1505,1505,1520,1489,1456,1441,1456,1488,1504,1520,1520,1489,1473,1457"
332,2,1,2,2,2025-12-08T23:06:23.369012Z,"1473,1505,1505,1489,1473,1441,1424,1425,1456,1488,1504,1504,1472,1441,1425,1409,1440,1473,1489,1488,1473,1440,1424,1409,1425,1456,1472,1489,1504,1457,1441,1440,1425,1457,1488,1488,1473,1457,1440,1441,1441,1473,1505,1520,1505,1488,1457,1441,1441,1472"
333,2,1,2,2,2025-12-08T23:06:23.472012Z,"1505,1488,1393,1361,1360,1360,1392,1425,1441,1441,1424,1392,1393,1376,1408,1441,1457,1472,1441,1425,1393,1393,1409,1440,1457,1472,1456,1392,1376,1360,1377,1424,1456,1456,1457,1424,1392,1408,1393,1424,1457,1488,1488,1472,1441,1424,1409,1425,1457,1488"
334,2,1,2,2,2025-12-08T23:06:23.575012Z,"480,1024,1024,1040,1072,1121,1168,1185,1184,1168,1168,1168,1184,1232,1264,1296,1312,1281,1264,1264,1264,1312,1344,1361,1392,1360,1344,1329,1328,1377,1409,1425,1456,1440,1409,1393,1377,1392,1425,1456,1473,1472,1441,1425,1425,1425,1440,1489,1504,1505"
335,2,1,2,2,2025-12-08T23:06:23.678012Z,"1425,1424,1424,1457,1489,1520,1504,1488,1457,1457,1457,1473,1521,1537,1536,1520,1488,1489,1472,1488,1520,1553,1568,1552,1521,1489,1489,1489,1521,1553,1601,1601,1568,1520,1521,1537,1553,1584,1600,1616,1585,1552,1536,1536,1552,1584,1601,1616,1601,1568"
336,2,1,2,2,2025-12-08T23:06:23.781012Z,"1504,1520,1552,1569,1584,1552,1520,1504,1489,1504,1536,1552,1569,1552,1521,1488,1473,1472,1504,1521,1553,1536,1520,1488,1472,1456,1489,1505,1552,1552,1536,1505,1472,1472,1473,1505,1536,1553,1536,1520,1489,1473,1473,1505,1537,1553,1553,1521,1504,1488"
337,2,1,2,2,2025-12-08T23:06:23.884012Z,"1489,1520,1536,1520,1489,1472,1457,1457,1472,1505,1520,1536,1505,1472,1457,1441,1456,1489,1520,1520,1505,1472,1440,1441,1457,1473,1488,1520,1521,1504,1473,1472,1472,1489,1520,1552,1552,1536,1505,1489,1472,1504,1521,1552,1569,1553,1521,1505,1488,1504"
338,2,1,2,2,2025-12-08T23:06:23.987012Z,"1552,1568,1537,1505,1489,1488,1488,1520,1552,1568,1552,1520,1505,1489,1488,1520,1536,1553,1553,1536,1504,1488,1472,1489,1521,1537,1553,1521,1488,1472,1473,1488,1504,1520,1520,1536,1504,1473,1457,1457,1473,1504,1520,1520,1488,1456,1441,1441,1456,1489"
339,2,1,2,2,2025-12-08T23:06:24.090012Z,"1488,1456,1424,1424,1409,1441,1473,1489,1488,1473,1441,1424,1409,1425,1473,1489,1488,1473,1441,1425,1409,1424,1441,1472,1489,1489,1409,1393,1376,1393,1425,1441,1472,1472,1457,1424,1408,1409,1425,1456,1473,1488,1472,1441,1409,1408,1408,1441,1472,1488"
340,2,1,2,2,2025-12-08T23:06:24.193012Z,"1408,1393,1377,1409,1425,1457,1473,1457,1425,1408,1393,1392,1424,1456,1473,1472,1441,1409,1393,1393,1425,1457,1473,1472,1457,1424,1408,1392,1424,1440,1473,1489,1472,1440,1425,1392,1425,1456,1489,1505,1504,1472,1441,1441,1424,1456,1488,1504,1520,1489"
341,2,1,2,2,2025-12-08T23:06:24.297012Z,"1409,1425,1457,1473,1489,1488,1473,1441,1425,1408,1441,1472,1488,1505,1488,1441,1425,1424,1425,1456,1488,1504,1489,1457,1441,1424,1425,1457,1488,1505,1521,1457,1440,1425,1441,1473,1504,1520,1520,1488,1456,1441,1441,1472,1504,1520,1521,1505,1473,1456"
342,2,1,2,2,2025-12-08T23:06:24.401012Z,"1456,1489,1504,1505,1473,1441,1424,1425,1441,1473,1489,1505,1473,1441,1424,1409,1424,1440,1472,1489,1473,1441,1409,1393,1409,1425,1457,1472,1472,1472,1409,1392,1408,1456,1472,1488,1489,1456,1424,1424,1408,1441,1472,1489,1489,1473,1441,1425,1408,1424"
343,2,1,2,2,2025-12-08T23:06:24.504012Z,"1457,1456,1424,1409,1377,1376,1393,1408,1440,1440,1409,1376,1361,1345,1361,1393,1409,1424,1409,1377,1361,1345,1344,1376,1393,1425,1425,1409,1376,1361,1376,1392,1440,1489,1489,1489,1473,1457,1456,1473,1504,1536,1568,1552,1537,1504,1504,1505,1553,1585"
344,2,1,2,3,2025-12-08T23:06:28.891011Z,"3232,3232,1297,1536,1777,1984,2240,2465,2672,2849,2609,1633,1856,2080,2304,2528,2721,2929,3072,944,1969,2177,2385,2609,2817,3009,3168,1856,1905,2097,2305,2545,2769,2961,3137,3136,2337,2528,2721,2913,3105,3265,3265,3280,1937,2592,2768,2929,3104,3232"
345,2,1,2,3,2025-12-08T23:06:28.994011Z,"2801,1857,2016,2193,2369,2592,2768,2913,3057,1601,2224,2385,2545,2736,2912,3072,3200,2400,2416,2561,2720,2881,3057,3200,3233,3232,2321,2481,2625,2817,2976,3152,3265,3264,2161,2720,2848,2977,3136,3265,3265,3249,2736,2705,2816,2928,3057,3200,3265,3233"
346,2,1,2,3,2025-12-08T23:06:29.097011Z,"2417,2529,2640,2769,2897,3008,3120,3120,2369,2481,2592,2721,2848,2961,3072,3152,1841,2368,2481,2593,2720,2849,2960,3040,1968,2240,2352,2464,2576,2753,2864,2976,2993,2352,2449,2561,2672,2800,2913,3008,3089,2177,2529,2624,2720,2832,2961,3056,3089,2401"
347,2,1,2,3,2025-12-08T23:06:29.201011Z,"2688,2768,2881,2992,3073,3136,1840,2433,2512,2593,2704,2817,2913,2977,2320,2288,2368,2448,2561,2657,2753,2848,2912,2176,2256,2321,2433,2545,2640,2768,2832,1825,2353,2433,2512,2609,2721,2800,2864,2464,2401,2465,2544,2625,2720,2817,2881,2912,2368,2433"
348,2,1,2,3,2025-12-08T23:06:29.303011Z,"2625,2672,2737,2816,2593,2209,2273,2336,2416,2512,2593,2673,2704,2112,2177,2225,2305,2400,2497,2560,2609,1744,2080,2129,2209,2272,2384,2464,2512,2513,2145,2208,2256,2336,2417,2512,2576,2608,2177,2224,2273,2337,2416,2497,2560,2609,2001,2208,2257,2304"
349,2,1,2,3,2025-12-08T23:06:29.405011Z,"2448,2481,2544,2241,1809,1873,1937,2017,2097,2176,2225,2288,1744,1792,1856,1904,2017,2096,2161,2224,1473,1745,1792,1840,1953,2032,2096,2161,1968,1600,1664,1729,1825,1936,2017,2096,2128,1808,1889,1920,1985,2081,2161,2225,2273,1760,2016,2064,2113,2160"
350,2,1,2,3,2025-12-08T23:06:29.508011Z,"2336,2352,1553,1905,1937,2001,2080,2144,2209,2257,1888,1841,1888,1937,2000,2080,2129,2193,2209,1776,1808,1857,1921,1984,2065,2081,2113,1376,1664,1697,1809,1856,1936,2000,2048,1872,1824,1841,1905,1952,2017,2065,2113,2144,1904,1936,1952,2001,2048,2097"
351,2,1,2,3,2025-12-08T23:06:29.612011Z,"1120,1504,1569,1616,1697,1777,1825,1872,1552,1536,1569,1600,1664,1745,1824,1856,1888,1521,1552,1585,1649,1728,1793,1840,1857,1360,1457,1488,1552,1649,1713,1792,1824,1664,1648,1680,1713,1793,1841,1905,1936,1985,1761,1777,1809,1841,1904,1968,2017,2017"
352,2,1,2,3,2025-12-08T23:06:29.715011Z,"1825,1856,1873,1936,1984,2016,2033,1681,1696,1729,1760,1808,1856,1904,1920,1329,1600,1617,1648,1713,1761,1808,1857,1584,1488,1521,1553,1616,1680,1744,1793,1808,1617,1616,1648,1681,1728,1793,1841,1856,1488,1681,1680,1696,1760,1808,1840,1857,1600,1520"
353,2,1,2,3,2025-12-08T23:06:29.818011Z,"1585,1632,1681,1745,1760,1408,1441,1456,1504,1536,1601,1665,1696,1697,1360,1393,1425,1457,1520,1584,1617,1648,1313,1360,1376,1392,1473,1552,1584,1600,1185,1360,1361,1393,1457,1520,1553,1617,1633,1473,1489,1521,1552,1617,1665,1696,1712,1569,1569,1585"
354,2,1,2,3,2025-12-08T23:06:29.921011Z,"1664,1713,1728,1745,1425,1457,1472,1504,1569,1616,1649,1648,1120,1376,1392,1424,1472,1536,1568,1600,1456,1329,1345,1376,1425,1472,1521,1569,1584,1297,1328,1360,1393,1457,1505,1553,1584,1280,1457,1473,1504,1520,1585,1632,1665,1600,1505,1520,1537,1585"
355,2,1,2,3,2025-12-08T23:06:30.024011Z,"1664,1681,1280,1392,1392,1425,1456,1521,1568,1585,1600,1313,1313,1360,1409,1424,1473,1536,1553,1264,1265,1296,1312,1376,1424,1456,1489,913,1152,1169,1217,1248,1328,1377,1408,1424,1329,1328,1360,1393,1457,1488,1537,1537,1457,1440,1441,1457,1505,1552"
356,2,1,2,3,2025-12-08T23:06:30.127011Z,"1392,1296,1281,1329,1376,1392,1440,1504,1521,977,1264,1296,1312,1360,1424,1441,1488,1249,1232,1249,1281,1329,1377,1425,1456,576,1041,1056,1089,1152,1216,1265,1312,1344,896,1104,1137,1169,1232,1296,1344,1377,1185,1137,1153,1184,1248,1328,1377,1409"
357,2,1,2,3,2025-12-08T23:06:30.231011Z,"1297,1296,1328,1361,1440,1473,1504,1344,1265,1280,1296,1345,1392,1440,1473,1489,1248,1248,1265,1297,1361,1409,1457,1489,1120,1249,1264,1280,1328,1408,1456,1504,1457,1376,1376,1424,1440,1505,1552,1584,1584,1473,1489,1472,1504,1568,1616,1616,1616,1377"
358,2,1,2,3,2025-12-08T23:06:30.335011Z,"1393,1456,1489,1520,1537,1392,1329,1328,1329,1360,1425,1473,1488,1489,1280,1296,1296,1312,1376,1424,1441,1457,1073,1248,1249,1265,1313,1376,1408,1456,1408,1376,1376,1392,1408,1457,1489,1520,1521,1441,1424,1424,1457,1504,1505,1552,1536,1329,1329,1345"
359,2,1,2,3,2025-12-08T23:06:30.438011Z,"1440,1456,1488,1329,1265,1264,1280,1313,1360,1393,1425,1425,1232,1232,1248,1265,1313,1360,1392,1424,993,1201,1217,1233,1265,1328,1361,1393,1392,1312,1312,1329,1361,1408,1456,1472,1473,1408,1393,1393,1425,1456,1504,1505,1521,1136,1312,1313,1328,1377"
360,2,1,2,3,2025-12-08T23:06:30.542011Z,"1473,1473,1265,1281,1265,1296,1344,1392,1425,1440,1217,1232,1232,1248,1281,1345,1377,1408,1393,1200,1200,1216,1248,1297,1345,1376,1392,1201,1200,1200,1232,1265,1329,1344,1377,1121,1168,1184,1201,1248,1296,1345,1377,1137,1136,1152,1168,1216,1265,1312"
361,2,1,2,3,2025-12-08T23:06:30.645011Z,"896,912,945,976,1040,1105,1152,1184,945,1025,1040,1072,1120,1184,1232,1264,1281,1121,1121,1152,1184,1249,1312,1329,1345,1168,1184,1201,1248,1312,1360,1409,1424,1377,1393,1392,1408,1456,1504,1536,1568,1552,1489,1504,1504,1536,1585,1617,1649,1648"
362,2,1,2,3,2025-12-08T23:06:30.748011Z,"1568,1569,1585,1632,1664,1680,1680,1520,1504,1505,1520,1552,1600,1616,1633,1345,1473,1473,1488,1521,1568,1585,1600,1504,1456,1457,1457,1489,1521,1568,1585,1600,1568,1553,1552,1568,1601,1632,1648,1648,1617,1601,1569,1568,1601,1648,1680,1681,1664,1633"
363,2,1,2,3,2025-12-08T23:06:30.851011Z,"1601,1616,1648,1649,1665,1456,1520,1521,1520,1536,1568,1585,1600,1584,1457,1457,1456,1473,1505,1537,1552,1553,1440,1425,1409,1424,1473,1488,1537,1536,1536,1489,1473,1473,1504,1536,1568,1584,1568,1520,1505,1505,1521,1553,1585,1601,1585,1552,1520,1520"
364,2,1,2,3,2025-12-08T23:06:30.954011Z,"1552,1569,1584,1553,1424,1440,1425,1440,1473,1489,1521,1504,1393,1392,1376,1377,1409,1457,1456,1473,1409,1360,1344,1344,1361,1409,1424,1440,1441,1328,1329,1329,1345,1393,1409,1441,1441,1409,1393,1376,1392,1408,1440,1457,1457,1457,1425,1409,1409,1441"
365,2,1,2,3,2025-12-08T23:06:31.057011Z,"1473,1489,1249,1361,1345,1345,1376,1409,1440,1441,1168,1216,1216,1216,1232,1280,1313,1329,1329,1232,1216,1217,1232,1265,1312,1328,1344,1089,1217,1217,1217,1248,1296,1313,1328,1281,1120,1121,1137,1169,1216,1232,1264,1264,1153,1152,1153,1153,1232,1264"
366,2,1,2,3,2025-12-08T23:06:31.160011Z,"977,1073,1056,1073,1104,1152,1185,1232,1217,1137,1137,1137,1153,1200,1233,1265,1281,1185,1184,1169,1184,1216,1264,1296,1312,1312,1105,1105,1121,1153,1201,1249,1280,1280,1264,1249,1249,1264,1296,1345,1376,1377,1361,1345,1329,1345,1376,1409,1440,1456"
367,2,1,2,3,2025-12-08T23:06:31.263011Z,"1377,1376,1376,1408,1440,1472,1473,1489,1377,1360,1361,1393,1425,1457,1473,1456,1376,1361,1360,1377,1408,1441,1457,1456,1264,1360,1360,1360,1393,1425,1456,1489,1473,1440,1424,1424,1440,1489,1504,1537,1488,1393,1377,1376,1409,1440,1473,1488,1488,1424"
368,2,1,2,3,2025-12-08T23:06:31.366011Z,"1441,1424,1456,1488,1505,1504,1425,1408,1393,1408,1441,1473,1488,1488,1409,1392,1393,1392,1408,1441,1457,1472,1457,1392,1377,1361,1376,1424,1441,1488,1473,1457,1425,1425,1425,1457,1489,1505,1504,1505,1424,1424,1440,1456,1489,1504,1521,1505,1473,1457"
369,2,1,2,3,2025-12-08T23:06:31.469011Z,"1456,1473,1504,1520,1504,1408,1392,1392,1409,1441,1473,1489,1472,1408,1393,1376,1392,1424,1457,1472,1472,1409,1392,1376,1376,1409,1441,1457,1456,1441,1392,1392,1376,1409,1440,1456,1472,1456,1424,1408,1377,1393,1425,1457,1488,1473,1456,1425,1408,1408"
370,2,1,2,3,2025-12-08T23:06:31.572011Z,"1456,1473,1457,1392,1376,1360,1361,1393,1425,1441,1440,1361,1360,1345,1329,1361,1392,1409,1424,1408,1345,1329,1312,1328,1361,1392,1408,1392,1329,1328,1313,1328,1360,1392,1393,1409,1377,1345,1344,1328,1360,1392,1409,1424,1392,1361,1345,1345,1361,1393"
371,2,1,2,3,2025-12-08T23:06:31.675011Z,"1409,1408,1329,1313,1312,1329,1361,1377,1392,1376,1313,1313,1296,1313,1344,1376,1392,1393,1345,1312,1313,1313,1345,1377,1392,1393,1408,1313,1329,1328,1345,1377,1408,1408,1409,1376,1345,1344,1361,1376,1409,1424,1424,1392,1376,1361,1360,1392,1424,1440"
372,2,1,2,3,2025-12-08T23:06:31.778011Z,"1184,1184,1185,1201,1233,1265,1296,1297,1232,1232,1233,1232,1264,1297,1329,1345,1312,1280,1265,1265,1281,1329,1344,1376,1361,1313,1297,1296,1313,1360,1392,1409,1425,1377,1376,1361,1360,1392,1425,1441,1441,1408,1393,1376,1377,1392,1424,1440,1456,1456"
373,2,1,2,3,2025-12-08T23:06:31.881011Z,"1376,1376,1393,1424,1457,1456,1456,1376,1361,1361,1361,1408,1424,1456,1441,1376,1360,1360,1360,1392,1424,1441,1441,1409,1361,1345,1345,1361,1393,1424,1441,1425,1393,1361,1361,1376,1409,1425,1457,1425,1408,1392,1376,1392,1424,1456,1457,1456,1441,1425"
374,2,1,2,3,2025-12-08T23:06:31.984011Z,"1392,1409,1441,1457,1456,1248,1376,1361,1360,1376,1409,1441,1441,1408,1360,1345,1344,1360,1393,1425,1440,1424,1361,1345,1329,1344,1377,1408,1424,1441,1377,1393,1376,1376,1409,1441,1472,1473,1424,1361,1345,1344,1376,1424,1440,1457,1441,1424,1408,1393"
375,2,1,2,3,2025-12-08T23:06:32.088011Z,"1456,1456,1457,1312,1376,1377,1376,1393,1424,1456,1472,1441,1393,1376,1377,1393,1424,1456,1473,1457,1393,1392,1376,1393,1424,1456,1472,1472,1361,1424,1409,1409,1440,1472,1488,1505,1472,1456,1408,1408,1425,1473,1504,1520,1504,1472,1456,1441,1456,1489"
376,2,1,2,3,2025-12-08T23:06:32.191011Z,"1520,1489,1440,1425,1424,1425,1457,1489,1505,1489,1441,1425,1408,1424,1441,1473,1488,1488,1393,1424,1409,1408,1424,1456,1472,1473,497,1296,1281,1297,1328,1360,1393,1408,1409,1393,1360,1344,1344,1392,1409,1441,1441,1408,1377,1360,1376,1393,1424,1472"
377,2,1,2,3,2025-12-08T23:06:32.295011Z,"1168,1169,1168,1184,1232,1265,1296,1312,1312,1280,1281,1265,1297,1345,1361,1393,1377,1345,1329,1329,1344,1377,1409,1440,1441,1393,1376,1376,1393,1425,1456,1489,1489,1472,1457,1440,1440,1456,1489,1489,1504,1505,1472,1472,1456,1489,1521,1537,1552,1537"
378,2,1,2,3,2025-12-08T23:06:32.398011Z,"1456,1457,1488,1521,1537,1553,1552,1472,1472,1456,1473,1504,1536,1536,1521,1489,1473,1456,1473,1488,1520,1537,1536,1489,1473,1456,1441,1472,1521,1552,1552,1521,1505,1488,1473,1504,1504,1537,1536,1520,1520,1505,1489,1489,1537,1553,1568,1569,1537,1505"
379,2,1,2,3,2025-12-08T23:06:32.501011Z,"1488,1520,1553,1553,1537,1472,1472,1472,1472,1489,1521,1537,1537,1472,1456,1457,1441,1473,1489,1505,1521,1489,1456,1424,1424,1440,1472,1488,1505,1505,1488,1456,1456,1457,1473,1505,1505,1505,1425,1441,1440,1425,1456,1489,1505,1505,1489,1456,1441,1441"
380,2,1,2,3,2025-12-08T23:06:32.604011Z,"1472,1489,1505,1472,1424,1408,1408,1425,1457,1473,1489,1473,1424,1409,1392,1408,1441,1473,1473,1473,1440,1408,1393,1392,1425,1457,1473,1488,1408,1424,1409,1408,1425,1473,1489,1505,1457,1408,1393,1393,1409,1425,1456,1473,1472,1424,1425,1408,1409,1441"
381,2,1,2,3,2025-12-08T23:06:32.707011Z,"1472,1456,1425,1392,1392,1392,1424,1457,1473,1472,1329,1408,1392,1392,1409,1440,1473,1473,1457,1408,1392,1392,1408,1440,1457,1472,1441,1425,1409,1409,1409,1440,1473,1489,1488,1425,1409,1392,1393,1440,1473,1488,1504,1472,1440,1440,1424,1441,1472,1488"
382,2,1,2,3,2025-12-08T23:06:32.811011Z,"1168,1168,1168,1185,1232,1264,1296,1297,1232,1249,1233,1248,1280,1312,1344,1361,1344,1296,1280,1280,1312,1361,1376,1393,1392,1329,1328,1328,1345,1392,1425,1441,1440,1408,1376,1361,1361,1392,1441,1457,1472,1441,1424,1408,1409,1425,1456,1472,1488,1489"
383,2,1,2,3,2025-12-08T23:06:32.914011Z,"1408,1392,1425,1457,1473,1488,1473,1409,1392,1392,1408,1441,1472,1472,1473,1425,1392,1393,1392,1425,1456,1473,1472,1441,1408,1393,1377,1408,1441,1488,1504,1473,1456,1441,1425,1441,1473,1505,1520,1505,1473,1456,1441,1456,1473,1505,1520,1537,1505,1472"
384,2,1,2,3,2025-12-08T23:06:33.017011Z,"1456,1488,1504,1520,1521,1473,1457,1441,1441,1473,1505,1521,1521,1489,1457,1456,1440,1473,1505,1521,1537,1521,1473,1457,1456,1456,1505,1521,1537,1553,1520,1504,1488,1488,1504,1521,1552,1569,1552,1521,1505,1504,1521,1552,1569,1584,1569,1521,1505,1488"
385,2,1,2,3,2025-12-08T23:06:33.120011Z,"1537,1553,1552,1520,1489,1473,1456,1473,1504,1521,1536,1520,1473,1457,1440,1456,1472,1505,1520,1520,1472,1457,1440,1441,1457,1488,1521,1521,1520,1489,1472,1457,1472,1505,1520,1521,1505,1456,1472,1457,1457,1488,1521,1537,1537,1505,1472,1456,1456,1489"
386,2,1,2,3,2025-12-08T23:06:33.223011Z,"1520,1520,1377,1360,1344,1361,1392,1424,1441,1456,1440,1392,1392,1376,1409,1440,1473,1473,1457,1425,1409,1409,1424,1457,1488,1489,1488,1296,1393,1392,1392,1441,1488,1489,1489,1440,1441,1441,1441,1472,1504,1520,1536,1521,1504,1489,1472,1489,1520,1553"
387,2,1,2,3,2025-12-08T23:06:33.326011Z,"1424,1280,1265,1265,1296,1344,1377,1392,1392,1361,1345,1344,1360,1392,1441,1457,1457,1376,1408,1408,1409,1440,1472,1505,1505,1505,1457,1457,1440,1488,1521,1553,1568,1520,1505,1489,1505,1504,1537,1569,1584,1585,1553,1520,1521,1520,1536,1568,1585,1601"
388,2,1,2,3,2025-12-08T23:06:33.429011Z,"1505,1504,1505,1521,1553,1568,1569,1537,1520,1489,1488,1505,1536,1553,1569,1553,1504,1489,1488,1489,1520,1537,1552,1553,1521,1488,1488,1473,1504,1536,1585,1584,1553,1521,1505,1504,1520,1552,1569,1585,1569,1537,1521,1505,1521,1553,1569,1584,1585,1536"
389,2,1,2,3,2025-12-08T23:06:33.532011Z,"1489,1505,1520,1552,1552,1537,1505,1488,1472,1472,1505,1521,1553,1537,1505,1488,1472,1457,1489,1520,1537,1537,1520,1473,1456,1457,1472,1504,1521,1552,1536,1504,1456,1456,1457,1488,1536,1553,1552,1520,1489,1473,1473,1505,1537,1537,1552,1521,1505,1473"
390,2,1,2,3,2025-12-08T23:06:33.636011Z,"1489,1521,1521,1521,1440,1456,1441,1440,1457,1488,1505,1504,1489,1456,1440,1425,1440,1473,1488,1505,1488,1457,1425,1409,1424,1440,1473,1489,1489,1472,1456,1424,1409,1456,1473,1504,1489,1457,1441,1424,1424,1440,1473,1488,1488,1472,1441,1425,1409,1441"
391,2,1,2,3,2025-12-08T23:06:33.739011Z,"1473,1457,1408,1408,1377,1376,1408,1425,1441,1457,1441,1392,1377,1360,1377,1408,1441,1440,1440,1393,1377,1360,1377,1393,1425,1440,1440,1345,1408,1393,1392,1392,1441,1457,1473,1456,1424,1409,1408,1424,1456,1473,1488,1473,1456,1424,1424,1425,1456,1488"
392,2,1,2,3,2025-12-08T23:06:33.842011Z,"1457,1409,1377,1377,1392,1424,1456,1473,1473,1441,1409,1408,1408,1441,1472,1488,1488,1472,1440,1425,1424,1440,1472,1504,1505,641,1393,1377,1393,1409,1440,1473,1489,1488,1472,1441,1441,1440,1473,1504,1520,1536,1505,1489,1473,1457,1489,1521,1537,1553"
393,2,1,2,4,2025-12-08T23:06:37.884854Z,"2305,2336,2001,2001,2016,2048,2097,2145,2177,2209,1760,1952,1953,1985,2017,2096,2113,2160,2144,1920,1937,1936,1984,2048,2081,2112,2128,1904,1937,1953,1969,2016,2081,2096,2129,1968,2032,2033,2048,2096,2128,2160,2193,2192,2112,2113,2128,2144,2161,2208"
394,2,1,2,4,2025-12-08T23:06:37.987854Z,"705,1377,1425,1456,1520,1584,1648,1697,1729,1537,1569,1569,1648,1681,1776,1808,1841,1473,1681,1713,1744,1792,1856,1905,1953,1824,1761,1777,1808,1873,1920,1969,2000,2000,1952,1952,1953,2000,2032,2080,2113,2096,1952,2033,2017,2032,2065,2096,2097,2096"
395,2,1,2,4,2025-12-08T23:06:38.091854Z,"1905,1905,1937,1969,2000,2016,2001,1841,1824,1825,1840,1888,1936,1952,1936,1664,1793,1793,1792,1825,1873,1904,1905,1825,1776,1745,1761,1809,1840,1872,1921,1904,1873,1857,1857,1872,1904,1952,1952,1968,1936,1921,1873,1905,1920,1968,1984,1953,1873,1840"
396,2,1,2,4,2025-12-08T23:06:38.195854Z,"1824,1857,1889,1889,1888,1744,1777,1777,1777,1792,1824,1857,1856,1808,1728,1713,1697,1729,1776,1793,1809,1793,1697,1680,1680,1680,1728,1744,1777,1777,1808,1728,1712,1729,1745,1793,1808,1809,1792,1760,1745,1745,1745,1792,1809,1825,1808,1648,1632,1633"
397,2,1,2,4,2025-12-08T23:06:38.299854Z,"1713,1713,1713,1601,1584,1569,1585,1632,1665,1680,1680,1584,1568,1569,1553,1568,1616,1632,1664,1585,1536,1520,1521,1553,1585,1600,1633,1601,1521,1520,1521,1521,1568,1601,1617,1616,1584,1568,1552,1553,1584,1617,1632,1632,1617,1569,1537,1536,1553,1616"
398,2,1,2,4,2025-12-08T23:06:38.402854Z,"1601,1488,1505,1489,1489,1504,1552,1552,1569,1553,1457,1441,1425,1457,1488,1520,1536,1504,1424,1424,1408,1392,1440,1473,1489,1488,1296,1376,1393,1393,1441,1441,1473,1504,1489,1456,1424,1424,1441,1472,1505,1520,1504,1488,1473,1424,1424,1473,1520,1536"
399,2,1,2,4,2025-12-08T23:06:38.505854Z,"1424,1425,1409,1424,1456,1489,1488,1505,1425,1409,1393,1393,1424,1440,1473,1489,1377,1377,1377,1393,1409,1440,1473,1488,1457,1392,1392,1376,1392,1456,1472,1504,1488,1457,1457,1441,1456,1473,1520,1537,1537,1521,1488,1472,1472,1472,1505,1537,1568,1537"
400,2,1,2,4,2025-12-08T23:06:38.608854Z,"1472,1456,1488,1521,1536,1552,1537,1472,1456,1457,1456,1505,1536,1537,1521,1457,1441,1425,1440,1472,1504,1536,1521,1328,1424,1409,1424,1441,1473,1520,1521,1505,1473,1456,1457,1456,1504,1537,1537,1520,1505,1472,1472,1473,1488,1521,1521,1536,1488,1488"
401,2,1,2,4,2025-12-08T23:06:38.712854Z,"1456,1504,1521,1536,1536,1473,1456,1440,1441,1472,1505,1521,1520,1409,1440,1441,1440,1456,1489,1520,1520,1505,1440,1441,1425,1441,1488,1504,1521,1537,1505,1488,1472,1473,1505,1536,1568,1568,1520,1520,1489,1489,1504,1552,1536,1536,1536,1489,1473,1457"
402,2,1,2,4,2025-12-08T23:06:38.815854Z,"1521,1536,1520,1473,1441,1441,1441,1473,1505,1520,1520,1488,1441,1425,1424,1457,1489,1505,1520,1489,1441,1424,1425,1441,1456,1488,1505,1489,1441,1424,1440,1457,1472,1505,1521,1520,1488,1472,1456,1441,1472,1505,1520,1521,1521,1488,1472,1456,1472,1504"
403,2,1,2,4,2025-12-08T23:06:38.919854Z,"1520,1473,1456,1441,1440,1440,1488,1505,1520,1504,1456,1440,1425,1441,1456,1488,1505,1504,1456,1425,1425,1425,1441,1489,1489,1505,1488,1424,1409,1425,1441,1489,1504,1520,1504,1473,1456,1457,1457,1505,1521,1537,1536,1473,1424,1441,1472,1488,1536,1552"
404,2,1,2,4,2025-12-08T23:06:39.022854Z,"1489,1472,1472,1489,1521,1537,1553,1536,1505,1472,1473,1473,1504,1536,1553,1553,1505,1489,1472,1472,1504,1520,1553,1553,1488,1488,1457,1457,1488,1521,1537,1553,1536,1505,1488,1472,1473,1504,1521,1537,1536,1505,1473,1457,1457,1489,1520,1521,1537,1505"
405,2,1,2,4,2025-12-08T23:06:39.125854Z,"1424,1440,1457,1489,1504,1504,1457,1440,1424,1424,1441,1473,1504,1521,1504,1456,1440,1440,1457,1488,1504,1521,1504,1472,1457,1440,1440,1472,1520,1536,1536,1505,1489,1457,1457,1489,1520,1537,1536,1521,1489,1457,1440,1457,1488,1521,1536,1520,1488,1473"
406,2,1,2,4,2025-12-08T23:06:39.228854Z,"1457,1488,1505,1520,1505,1457,1440,1425,1441,1472,1489,1504,1504,1457,1441,1424,1440,1456,1488,1505,1504,1473,1441,1424,1425,1440,1472,1489,1488,1504,1473,1457,1441,1457,1488,1521,1521,1520,1489,1456,1440,1440,1457,1488,1488,1521,1488,1457,1440,1441"
407,2,1,2,4,2025-12-08T23:06:39.333023Z,"1505,1488,1473,1424,1409,1393,1409,1441,1456,1472,1473,1425,1408,1393,1393,1409,1440,1456,1457,1441,1392,1377,1376,1392,1425,1440,1457,1440,1408,1392,1376,1377,1424,1440,1457,1441,1425,1393,1377,1376,1409,1425,1425,1441,1425,1393,1361,1361,1393,1409"
408,2,1,2,4,2025-12-08T23:06:39.435854Z,"1409,1312,1265,1265,1264,1296,1313,1344,1360,1329,1297,1281,1280,1297,1329,1361,1376,1360,1329,1313,1313,1312,1344,1377,1392,1393,1376,1345,1329,1344,1377,1408,1425,1441,1425,1393,1376,1377,1393,1440,1457,1457,1440,1409,1408,1408,1409,1440,1472,1489"
409,2,1,2,4,2025-12-08T23:06:39.538854Z,"1425,1409,1393,1425,1441,1473,1488,1472,1440,1425,1409,1408,1440,1473,1488,1489,1441,1441,1425,1409,1440,1472,1488,1488,1472,1440,1409,1408,1424,1489,1504,1520,1504,1473,1456,1440,1440,1472,1488,1505,1505,1441,1441,1424,1424,1457,1489,1505,1504,1489"
410,2,1,2,4,2025-12-08T23:06:39.641965Z,"1408,1409,1441,1473,1489,1488,1456,1425,1409,1409,1424,1457,1473,1489,1472,1440,1424,1424,1424,1441,1472,1488,1489,1456,1440,1425,1425,1440,1473,1504,1520,1504,1473,1457,1456,1473,1505,1520,1536,1520,1456,1456,1440,1473,1505,1537,1552,1537,1504,1489"
411,2,1,2,4,2025-12-08T23:06:39.744854Z,"1473,1505,1521,1536,1537,1504,1489,1472,1473,1505,1536,1552,1553,1520,1504,1489,1488,1520,1553,1569,1585,1569,1521,1521,1504,1521,1552,1584,1601,1569,1568,1552,1536,1536,1568,1600,1616,1600,1585,1553,1520,1504,1521,1585,1600,1600,1584,1553,1537,1521"
412,2,1,2,4,2025-12-08T23:06:39.847854Z,"1552,1569,1569,1553,1520,1489,1489,1488,1520,1553,1553,1537,1505,1473,1473,1473,1505,1521,1537,1536,1505,1472,1456,1457,1488,1520,1536,1537,1504,1489,1472,1472,1489,1521,1552,1553,1537,1521,1488,1456,1489,1520,1553,1569,1553,1537,1505,1488,1489,1521"
413,2,1,2,4,2025-12-08T23:06:39.951854Z,"1536,1521,1505,1473,1472,1473,1488,1520,1537,1536,1489,1473,1457,1457,1472,1505,1521,1521,1504,1472,1457,1440,1456,1488,1505,1520,1505,1473,1456,1456,1457,1489,1520,1536,1537,1505,1473,1457,1456,1472,1504,1504,1521,1489,1473,1457,1457,1488,1504,1520"
414,2,1,2,4,2025-12-08T23:06:40.054854Z,"1393,1376,1361,1377,1408,1440,1441,1457,1440,1393,1377,1376,1408,1441,1457,1473,1441,1424,1392,1392,1408,1440,1457,1472,1457,1425,1408,1393,1409,1457,1489,1505,1489,1472,1441,1424,1424,1441,1456,1473,1488,1456,1440,1424,1424,1441,1472,1488,1504,1489"
415,2,1,2,4,2025-12-08T23:06:40.157854Z,"1408,1393,1424,1457,1473,1472,1457,1424,1409,1409,1408,1441,1457,1473,1457,1424,1409,1392,1393,1424,1440,1457,1456,1425,1409,1392,1392,1409,1441,1457,1457,1456,1425,1393,1393,1408,1441,1457,1456,1440,1408,1393,1376,1392,1424,1456,1472,1473,1456,1441"
416,2,1,2,4,2025-12-08T23:06:40.261854Z,"1393,1425,1456,1473,1473,1441,1409,1409,1408,1425,1457,1472,1473,1457,1425,1408,1392,1424,1456,1473,1489,1457,1440,1424,1408,1409,1424,1457,1472,1488,1456,1440,1424,1424,1441,1473,1489,1489,1409,1408,1392,1393,1440,1473,1489,1488,1457,1440,1409,1409"
417,2,1,2,4,2025-12-08T23:06:40.364854Z,"1456,1456,1456,1408,1393,1376,1376,1392,1425,1440,1456,1424,1392,1393,1377,1392,1424,1441,1456,1441,1409,1377,1377,1392,1409,1440,1457,1441,1328,1345,1328,1361,1377,1424,1441,1457,1424,1361,1377,1361,1392,1440,1456,1472,1456,1440,1409,1409,1424,1456"
418,2,1,2,4,2025-12-08T23:06:40.467854Z,"1473,1457,1441,1409,1408,1425,1457,1473,1488,1488,1440,1440,1424,1424,1457,1488,1505,1504,1472,1457,1440,1425,1456,1489,1505,1521,1489,1473,1456,1473,1472,1505,1537,1553,1536,1504,1488,1457,1456,1489,1537,1553,1553,1521,1505,1488,1489,1504,1536,1553"
419,2,1,2,4,2025-12-08T23:06:40.570854Z,"1041,1265,1264,1265,1312,1345,1360,1377,880,689,721,752,816,880,928,960,976,448,497,545,609,688,752,817,849,256,337,400,480,577,673,753,816,865,881,929,976,1040,1121,1168,1232,1249,1264,1296,1312,1361,1424,1473,1521,1537"
420,2,1,2,4,2025-12-08T23:06:40.672854Z,"1552,1569,1584,1633,1681,1713,1745,1729,1728,1728,1745,1776,1808,1841,1873,1873,1857,1841,1841,1857,1888,1921,1936,1936,1921,1904,1905,1905,1936,2000,2017,2016,2001,1968,1952,1953,1953,1984,2001,2000,2017,1984,1968,1953,1969,2001,2016,2033,2016,1984"
421,2,1,2,4,2025-12-08T23:06:40.776854Z,"1920,1936,1952,1968,1984,1968,1936,1904,1889,1904,1921,1936,1953,1936,1905,1888,1857,1857,1872,1905,1905,1905,1872,1808,1792,1792,1808,1825,1840,1856,1825,1792,1777,1760,1761,1793,1824,1825,1793,1761,1744,1729,1745,1760,1776,1793,1776,1744,1713,1697"
422,2,1,2,4,2025-12-08T23:06:40.879854Z,"1728,1745,1761,1744,1697,1680,1665,1665,1680,1712,1712,1713,1665,1648,1633,1617,1633,1665,1680,1681,1648,1616,1600,1584,1600,1617,1633,1649,1648,1617,1584,1569,1585,1601,1617,1617,1600,1568,1552,1552,1536,1568,1584,1601,1600,1569,1552,1520,1505,1520"
423,2,1,2,4,2025-12-08T23:06:40.983854Z,"1552,1553,1521,1488,1473,1457,1489,1505,1521,1536,1504,1472,1457,1441,1457,1488,1505,1520,1505,1472,1456,1440,1440,1457,1489,1489,1505,1457,1441,1457,1440,1456,1489,1504,1505,1456,1440,1409,1441,1457,1489,1504,1505,1473,1457,1440,1440,1457,1488,1504"
424,2,1,2,4,2025-12-08T23:06:41.086854Z,"336,1264,1264,1264,1297,1328,1361,1377,1360,1344,1328,1328,1345,1376,1392,1409,1409,1377,1376,1361,1361,1408,1424,1441,1457,1425,1408,1393,1392,1425,1457,1488,1489,1472,1424,1424,1425,1440,1472,1489,1505,1505,1473,1457,1441,1441,1473,1504,1521,1521"
425,2,1,2,4,2025-12-08T23:06:41.189854Z,"1441,1424,1440,1472,1489,1505,1505,1472,1457,1441,1440,1473,1488,1505,1520,1488,1456,1456,1441,1457,1488,1520,1520,1505,1473,1457,1456,1456,1488,1520,1552,1537,1504,1489,1456,1456,1489,1521,1537,1536,1504,1488,1456,1457,1472,1505,1537,1569,1537,1505"
426,2,1,2,4,2025-12-08T23:06:41.293854Z,"1472,1488,1521,1536,1537,1521,1489,1472,1457,1472,1505,1520,1536,1520,1488,1473,1457,1457,1489,1520,1537,1536,1505,1488,1457,1457,1488,1504,1552,1553,1536,1505,1489,1472,1505,1520,1536,1537,1505,1489,1472,1457,1488,1505,1537,1569,1553,1521,1505,1488"
427,2,1,2,4,2025-12-08T23:06:41.397854Z,"1520,1537,1553,1521,1505,1488,1472,1488,1505,1537,1553,1536,1505,1488,1473,1472,1504,1537,1553,1552,1520,1488,1473,1472,1505,1536,1553,1553,1537,1536,1505,1504,1520,1537,1552,1552,1552,1520,1505,1504,1521,1553,1569,1569,1553,1520,1504,1505,1505,1536"
428,2,1,2,4,2025-12-08T23:06:41.500854Z,"1537,1521,1489,1472,1472,1473,1505,1521,1537,1520,1489,1472,1457,1456,1488,1520,1521,1521,1489,1473,1456,1456,1472,1504,1521,1520,1505,1473,1472,1472,1473,1505,1537,1537,1520,1505,1488,1472,1472,1504,1521,1552,1537,1505,1488,1473,1473,1488,1521,1537"
429,2,1,2,4,2025-12-08T23:06:41.603854Z,"1312,1313,1297,1313,1345,1376,1409,1408,1392,1360,1360,1361,1376,1408,1441,1457,1441,1408,1392,1392,1409,1441,1456,1472,1473,1441,1424,1424,1441,1472,1504,1521,1521,1505,1472,1456,1456,1488,1505,1537,1537,1520,1488,1473,1473,1488,1520,1536,1553,1537"
430,2,1,2,4,2025-12-08T23:06:41.706854Z,"1456,1457,1473,1504,1521,1521,1520,1488,1457,1456,1457,1489,1505,1521,1521,1488,1456,1441,1441,1472,1488,1504,1520,1489,1456,1441,1441,1457,1489,1521,1520,1488,1457,1440,1425,1456,1489,1505,1521,1505,1473,1456,1441,1441,1456,1489,1504,1504,1473,1457"
431,2,1,2,4,2025-12-08T23:06:41.810854Z,"1425,1456,1472,1488,1488,1457,1425,1408,1408,1425,1456,1472,1473,1441,1425,1392,1393,1408,1424,1456,1472,1457,1424,1393,1393,1392,1409,1441,1457,1472,1441,1409,1376,1377,1424,1457,1457,1456,1424,1408,1392,1393,1409,1441,1457,1456,1441,1393,1392,1377"
432,2,1,2,4,2025-12-08T23:06:41.913854Z,"1424,1441,1440,1409,1377,1360,1361,1392,1425,1440,1441,1425,1392,1377,1376,1393,1409,1441,1456,1441,1409,1392,1392,1392,1424,1440,1472,1472,1441,1441,1393,1393,1425,1457,1489,1504,1488,1457,1440,1425,1424,1472,1505,1521,1505,1472,1457,1440,1440,1473"
433,2,1,2,4,2025-12-08T23:06:42.017854Z,"1504,1457,1249,1248,1233,1265,1297,1328,1360,1360,1329,1313,1312,1313,1344,1393,1408,1424,1409,1377,1361,1361,1393,1425,1440,1457,1457,1393,1377,1377,1408,1440,1456,1488,1473,1457,1441,1441,1456,1489,1521,1537,1520,1488,1472,1473,1473,1520,1537,1553"
